Section 32 Existing
test
32E.FLD

 DIST    B Horz   B Vert   B PROD    B MAX   E Horz   E Vert   E PROD    E MAX
 (Ft)     (mG)     (mG)     (mG)      (mG)   (kV/m)   (kV/m)   (kV/m)   (V/m)
 ----    ------   ------   ------    -----   ------   ------   ------   ------
-300.00   52.378  121.824  132.606  132.526    0.058    0.611    0.614    0.614
-299.00   54.084  123.996  135.278  135.192    0.060    0.630    0.633    0.633
-298.00   55.867  126.226  138.036  137.945    0.063    0.651    0.654    0.654
-297.00   57.732  128.513  140.885  140.788    0.066    0.672    0.675    0.675
-296.00   59.684  130.861  143.828  143.725    0.069    0.694    0.698    0.698
-295.00   61.727  133.270  146.871  146.760    0.072    0.718    0.721    0.721
-294.00   63.868  135.742  150.016  149.899    0.075    0.742    0.746    0.746
-293.00   66.112  138.279  153.270  153.145    0.079    0.767    0.771    0.771
-292.00   68.465  140.882  156.637  156.503    0.083    0.794    0.798    0.798
-291.00   70.934  143.554  160.123  159.980    0.087    0.822    0.827    0.827
-290.00   73.527  146.296  163.733  163.581    0.091    0.851    0.856    0.856
-289.00   76.250  149.109  167.474  167.310    0.095    0.882    0.887    0.887
-288.00   79.113  151.994  171.351  171.176    0.100    0.914    0.920    0.920
-287.00   82.124  154.954  175.371  175.184    0.105    0.948    0.954    0.954
-286.00   85.293  157.989  179.543  179.342    0.110    0.984    0.990    0.990
-285.00   88.630  161.101  183.872  183.657    0.116    1.021    1.028    1.028
-284.00   92.147  164.290  188.368  188.137    0.122    1.060    1.067    1.067
-283.00   95.854  167.558  193.038  192.790    0.128    1.102    1.109    1.109
-282.00   99.766  170.903  197.892  197.626    0.135    1.145    1.153    1.153
-281.00  103.895  174.328  202.939  202.653    0.142    1.191    1.199    1.199
-280.00  108.257  177.830  208.190  207.883    0.150    1.239    1.248    1.248
-279.00  112.868  181.410  213.656  213.324    0.158    1.290    1.300    1.300
-278.00  117.745  185.065  219.347  218.990    0.167    1.344    1.354    1.354
-277.00  122.907  188.794  225.276  224.891    0.176    1.400    1.411    1.411
-276.00  128.374  192.594  231.457  231.041    0.186    1.460    1.471    1.471
-275.00  134.167  196.460  237.902  237.452    0.196    1.523    1.535    1.535
-274.00  140.310  200.387  244.626  244.140    0.207    1.589    1.602    1.602
-273.00  146.828  204.369  251.645  251.119    0.219    1.659    1.674    1.674
-272.00  153.748  208.397  258.974  258.404    0.231    1.733    1.749    1.749
-271.00  161.098  212.462  266.632  266.014    0.244    1.812    1.828    1.828
-270.00  168.910  216.551  274.636  273.965    0.258    1.895    1.912    1.912
-269.00  177.218  220.649  283.005  282.277    0.273    1.982    2.001    2.001
-268.00  186.056  224.738  291.760  290.968    0.289    2.075    2.095    2.095
-267.00  195.462  228.798  300.922  300.060    0.306    2.173    2.195    2.195
-266.00  205.477  232.803  310.513  309.573    0.323    2.277    2.300    2.300
-265.00  216.143  236.723  320.555  319.530    0.342    2.387    2.411    2.411
-264.00  227.504  240.523  331.073  329.954    0.361    2.503    2.529    2.529
-263.00  239.608  244.161  342.092  340.869    0.381    2.626    2.653    2.653
-262.00  252.502  247.590  353.636  352.298    0.403    2.755    2.785    2.785
-261.00  266.237  250.752  365.730  364.266    0.425    2.892    2.923    2.923
-260.00  280.862  253.583  378.402  376.796    0.448    3.037    3.070    3.070
-259.00  296.427  256.008  391.675  389.913    0.471    3.189    3.224    3.224
-258.00  312.980  257.941  405.574  403.639    0.495    3.350    3.387    3.387
-257.00  330.567  259.283  420.122  417.995    0.520    3.519    3.557    3.557
-256.00  349.228  259.924  435.340  432.999    0.544    3.697    3.736    3.736
-255.00  368.996  259.738  451.245  448.667    0.568    3.882    3.924    3.924
-254.00  389.892  258.589  467.850  465.009    0.592    4.077    4.120    4.120
-253.00  411.923  256.326  485.163  482.028    0.614    4.279    4.323    4.323
-252.00  435.078  252.787  503.184  499.723    0.634    4.490    4.534    4.534
-251.00  459.320  247.807  521.904  518.079    0.652    4.707    4.752    4.752
-250.00  484.584  241.220  541.303  537.074    0.666    4.931    4.976    4.976
-249.00  510.764  232.874  561.347  556.669    0.677    5.160    5.204    5.204
-248.00  537.713  222.650  581.986  576.810    0.681    5.392    5.435    5.435
-247.00  565.231  210.498  603.154  597.424    0.680    5.626    5.667    5.667
-246.00  593.061  196.488  624.763  618.419    0.671    5.859    5.898    5.898
-245.00  620.883  180.910  646.702  639.679    0.653    6.089    6.124    6.124
-244.00  648.311  164.434  668.839  661.064    0.626    6.313    6.344    6.344
-243.00  674.896  148.390  691.017  682.414    0.589    6.526    6.553    6.552
-242.00  700.131  135.163  713.058  703.544    0.540    6.725    6.747    6.746
-241.00  723.459  128.397  734.765  724.250    0.482    6.906    6.923    6.922
-240.00  744.299  132.067  755.925  744.316    0.413    7.064    7.076    7.075
-239.00  762.063  148.094  776.320  763.516    0.339    7.194    7.202    7.201
-238.00  776.191  175.251  795.729  781.625    0.264    7.294    7.299    7.298
-237.00  786.181  210.777  813.945  798.430    0.207    7.359    7.362    7.360
-236.00  791.625  252.041  830.780  813.739    0.199    7.387    7.389    7.387
-235.00  792.240  296.981  846.075  827.387    0.253    7.375    7.379    7.375
-234.00  787.890  343.998  859.712  839.251    0.344    7.322    7.330    7.325
-233.00  778.597  391.796  871.618  849.252    0.449    7.230    7.244    7.237
-232.00  764.551  439.293  881.769  857.360    0.558    7.099    7.121    7.112
-231.00  746.092  485.576  890.190  863.590    0.664    6.932    6.964    6.952
-230.00  723.699  529.892  896.953  868.006    0.765    6.733    6.776    6.761
-229.00  697.957  571.636  902.171  870.709    0.857    6.506    6.563    6.543
-228.00  669.540  610.353  905.988  871.830    0.940    6.257    6.327    6.302
-227.00  639.175  645.727  908.575  871.524    1.013    5.991    6.076    6.043
-226.00  607.631  677.570  910.118  869.959    1.076    5.715    5.816    5.773
-225.00  575.695  705.798  910.810  867.308    1.128    5.436    5.551    5.497
-224.00  544.175  730.418  910.844  863.740    1.171    5.159    5.290    5.221
-223.00  513.891  751.500  910.404  859.416    1.206    4.893    5.039    4.953
-222.00  485.681  769.162  909.668  854.483    1.233    4.645    4.806    4.699
-221.00  460.397  783.543  908.793  849.069    1.253    4.423    4.597    4.467
-220.00  438.886  794.797  907.922  843.286    1.266    4.234    4.419    4.265
-219.00  421.957  803.073  907.179  837.223    1.275    4.085    4.280    4.104
-218.00  410.308  808.512  906.667  830.946    1.279    3.984    4.184    3.991
-217.00  404.448  811.236  906.467  824.501    1.279    3.933    4.136    3.934
-216.00  404.607  811.353  906.643  817.916    1.274    3.936    4.136    3.936
-215.00  410.691  808.954  907.234  811.194    1.264    3.990    4.185    3.997
-214.00  422.290  804.121  908.261  804.322    1.250    4.092    4.279    4.110
-213.00  438.737  796.936  909.724  797.271    1.230    4.237    4.412    4.265
-212.00  459.199  787.497  911.600  789.994    1.204    4.416    4.577    4.453
-211.00  482.753  775.930  913.848  782.435    1.171    4.621    4.768    4.665
-210.00  508.453  762.414  916.406  774.528    1.131    4.845    4.975    4.891
-209.00  535.353  747.203  919.193  766.206    1.082    5.077    5.191    5.122
-208.00  562.534  730.649  922.113  757.406    1.025    5.311    5.409    5.353
-207.00  589.102  713.224  925.057  748.083    0.959    5.538    5.621    5.575
-206.00  614.199  695.531  927.903  738.227    0.886    5.752    5.820    5.782
-205.00  637.010  678.308  930.528  727.900    0.807    5.946    6.000    5.968
-204.00  656.782  662.399  932.811  717.313    0.725    6.113    6.156    6.128
-203.00  672.845  648.709  934.636  706.990    0.646    6.249    6.282    6.257
-202.00  684.638  638.112  935.904  698.177    0.578    6.348    6.374    6.352
-201.00  691.735  631.353  936.538  693.400    0.530    6.408    6.430    6.409
-200.00  693.865  628.935  936.487  695.179    0.513    6.427    6.447    6.427
-199.00  690.931  631.033  935.729  702.432    0.530    6.403    6.425    6.404
-198.00  683.012  637.466  934.275  712.162    0.578    6.338    6.364    6.342
-197.00  670.359  647.727  932.165  722.484    0.647    6.233    6.266    6.243
-196.00  653.378  661.064  929.467  732.555    0.725    6.092    6.135    6.108
-195.00  632.609  676.598  926.271  742.016    0.807    5.918    5.973    5.942
-194.00  608.699  693.422  922.685  750.730    0.886    5.718    5.786    5.750
-193.00  582.378  710.686  918.825  758.670    0.959    5.497    5.580    5.536
-192.00  554.433  727.654  914.809  765.870    1.025    5.261    5.360    5.306
-191.00  525.700  743.718  910.756  772.397    1.082    5.018    5.133    5.067
-190.00  497.049  758.407  906.774  778.334    1.130    4.775    4.907    4.826
-189.00  469.389  771.369  902.960  783.773    1.171    4.540    4.688    4.589
-188.00  443.665  782.351  899.395  788.802    1.204    4.322    4.486    4.365
-187.00  420.853  791.176  896.145  793.506    1.229    4.129    4.308    4.163
-186.00  401.937  797.718  893.257  797.956    1.249    3.970    4.162    3.993
-185.00  387.854  801.883  890.757  802.210    1.263    3.854    4.056    3.864
-184.00  379.398  803.593  888.653  806.312    1.273    3.786    3.994    3.788
-183.00  377.116  802.766  886.933  810.286    1.277    3.771    3.982    3.772
-182.00  381.209  799.318  885.567  814.139    1.278    3.812    4.020    3.818
-181.00  391.494  793.145  884.503  817.856    1.273    3.905    4.108    3.923
-180.00  407.452  784.129  883.672  821.403    1.265    4.048    4.241    4.079
-179.00  428.326  772.138  882.983  824.727    1.250    4.233    4.413    4.277
-178.00  453.228  757.028  882.330  827.753    1.230    4.452    4.619    4.507
-177.00  481.232  738.657  881.588  830.389    1.203    4.698    4.850    4.760
-176.00  511.417  716.894  880.616  832.522    1.168    4.963    5.098    5.027
-175.00  542.894  691.638  879.260  834.024    1.124    5.238    5.358    5.301
-174.00  574.803  662.837  877.354  834.758    1.071    5.517    5.620    5.576
-173.00  606.312  630.506  874.730  834.574    1.008    5.791    5.879    5.844
-172.00  636.615  594.761  871.217  833.325    0.935    6.055    6.127    6.100
-171.00  664.936  555.830  866.652  830.864    0.852    6.302    6.360    6.339
-170.00  690.537  514.087  860.888  827.061    0.759    6.526    6.570    6.554
-169.00  712.746  470.068  853.797  821.802    0.659    6.722    6.754    6.742
-168.00  730.971  424.488  845.287  815.006    0.554    6.884    6.907    6.897
-167.00  744.737  378.272  835.298  806.625    0.448    7.010    7.025    7.017
-166.00  753.700  332.577  823.815  796.650    0.348    7.097    7.106    7.100
-165.00  757.674  288.853  810.867  785.119    0.267    7.143    7.148    7.144
-164.00  756.636  248.919  796.529  772.110    0.227    7.148    7.152    7.148
-163.00  750.722  215.041  780.914  757.741    0.247    7.113    7.117    7.114
-162.00  740.217  189.829  764.170  742.166    0.306    7.039    7.046    7.043
-161.00  725.529  175.590  746.475  725.562    0.381    6.930    6.941    6.939
-160.00  707.160  173.028  728.020  708.127    0.455    6.789    6.805    6.803
-159.00  685.670  180.418  709.010  690.064    0.524    6.621    6.642    6.641
-158.00  661.648  194.501  689.643  671.578    0.583    6.429    6.456    6.455
-157.00  635.675  212.068  670.116  652.865    0.632    6.219    6.251    6.250
-156.00  608.307  230.764  650.607  634.107    0.670    5.994    6.031    6.030
-155.00  580.051  249.103  631.278  615.469    0.698    5.758    5.800    5.799
-154.00  551.357  266.233  612.270  597.096    0.717    5.515    5.561    5.560
-153.00  522.610  281.714  593.704  579.110    0.727    5.268    5.318    5.317
-152.00  494.130  295.364  575.678  561.613    0.730    5.020    5.073    5.072
-151.00  466.175  307.160  558.271  544.687    0.726    4.774    4.829    4.828
-150.00  438.942  317.173  541.543  528.396    0.717    4.531    4.588    4.586
-149.00  412.581  325.526  525.539  512.787    0.704    4.293    4.350    4.349
-148.00  387.197  332.373  510.288  497.893    0.688    4.061    4.119    4.117
-147.00  362.856  337.878  495.809  483.735    0.670    3.836    3.894    3.892
-146.00  339.597  342.205  482.110  470.325    0.649    3.618    3.676    3.674
-145.00  317.432  345.512  469.193  457.665    0.628    3.408    3.466    3.463
-144.00  296.358  347.947  457.050  445.753    0.606    3.207    3.264    3.261
-143.00  276.355  349.646  445.673  434.580    0.584    3.014    3.071    3.067
-142.00  257.398  350.732  435.048  424.136    0.562    2.830    2.886    2.882
-141.00  239.451  351.315  425.158  414.406    0.541    2.655    2.709    2.705
-140.00  222.480  351.493  415.986  405.375    0.520    2.488    2.542    2.536
-139.00  206.448  351.350  407.514  397.026    0.501    2.329    2.382    2.376
-138.00  191.321  350.962  399.723  389.343    0.482    2.179    2.232    2.223
-137.00  177.072  350.394  392.594  382.308    0.465    2.037    2.090    2.080
-136.00  163.678  349.701  386.110  375.905    0.449    1.904    1.956    1.944
-135.00  151.128  348.933  380.255  370.119    0.434    1.779    1.831    1.817
-134.00  139.425  348.130  375.011  364.935    0.421    1.663    1.715    1.698
-133.00  128.586  347.327  370.366  360.340    0.409    1.556    1.609    1.587
-132.00  118.652  346.555  366.304  356.320    0.398    1.459    1.512    1.486
-131.00  109.686  345.837  362.815  352.866    0.389    1.372    1.426    1.395
-130.00  101.782  345.195  359.888  349.968    0.381    1.297    1.352    1.315
-129.00   95.061  344.644  357.514  347.618    0.375    1.234    1.289    1.247
-128.00   89.667  344.199  355.687  345.808    0.370    1.184    1.240    1.192
-127.00   85.757  343.868  354.400  344.534    0.366    1.148    1.205    1.152
-126.00   83.469  343.658  353.649  343.793    0.364    1.128    1.185    1.129
-125.00   82.898  343.574  353.433  343.581    0.363    1.124    1.181    1.124
-124.00   84.065  343.617  353.751  343.898    0.364    1.135    1.192    1.136
-123.00   86.916  343.786  354.603  344.745    0.366    1.161    1.218    1.167
-122.00   91.332  344.076  355.991  346.125    0.369    1.203    1.258    1.213
-121.00   97.161  344.481  357.921  348.040    0.374    1.258    1.312    1.273
-120.00  104.246  344.991  360.397  350.497    0.381    1.326    1.379    1.345
-119.00  112.450  345.593  363.428  353.502    0.388    1.405    1.458    1.429
-118.00  121.659  346.271  367.021  357.063    0.397    1.495    1.547    1.523
-117.00  131.791  347.004  371.188  361.190    0.408    1.595    1.646    1.627
-116.00  142.790  347.767  375.940  365.894    0.420    1.704    1.755    1.739
-115.00  154.625  348.532  381.292  371.187    0.433    1.822    1.873    1.859
-114.00  167.282  349.262  387.256  377.083    0.448    1.948    1.999    1.988
-113.00  180.765  349.918  393.851  383.597    0.464    2.083    2.134    2.125
-112.00  195.089  350.450  401.092  390.745    0.481    2.225    2.277    2.269
-111.00  210.278  350.802  408.998  398.542    0.500    2.376    2.428    2.422
-110.00  226.363  350.911  417.587  407.006    0.519    2.535    2.588    2.583
-109.00  243.380  350.701  426.878  416.155    0.540    2.703    2.756    2.752
-108.00  261.366  350.086  436.890  426.004    0.561    2.879    2.933    2.929
-107.00  280.359  348.971  447.640  436.569    0.582    3.063    3.118    3.115
-106.00  300.392  347.244  459.145  447.865    0.604    3.256    3.311    3.309
-105.00  321.494  344.785  471.418  459.903    0.626    3.457    3.513    3.511
-104.00  343.683  341.457  484.470  472.691    0.648    3.666    3.723    3.721
-103.00  366.965  337.114  498.306  486.232    0.668    3.883    3.940    3.939
-102.00  391.326  331.597  512.926  500.522    0.686    4.108    4.165    4.164
-101.00  416.730  324.745  528.321  515.551    0.702    4.340    4.397    4.396
-100.00  443.109  316.395  544.473  531.298    0.715    4.578    4.634    4.633
 -99.00  470.359  306.396  561.352  547.728    0.724    4.821    4.875    4.874
 -98.00  498.332  294.627  578.913  564.794    0.728    5.066    5.118    5.118
 -97.00  526.829  281.023  597.096  582.433    0.725    5.314    5.363    5.362
 -96.00  555.593  265.614  615.821  600.562    0.715    5.560    5.605    5.605
 -95.00  584.305  248.592  634.988  619.078    0.696    5.802    5.844    5.843
 -94.00  612.579  230.411  654.478  637.857    0.668    6.037    6.074    6.073
 -93.00  639.966  211.941  674.148  656.753    0.630    6.262    6.294    6.293
 -92.00  665.959  194.691  693.834  675.602    0.581    6.472    6.498    6.497
 -91.00  690.003  181.033  713.356  694.219    0.522    6.663    6.684    6.682
 -90.00  711.516  174.153  732.519  712.406    0.454    6.831    6.846    6.845
 -89.00  729.911  177.232  751.120  729.959    0.379    6.971    6.982    6.980
 -88.00  744.627  191.892  768.955  746.670    0.305    7.080    7.087    7.084
 -87.00  755.162  217.387  785.829  762.343    0.246    7.153    7.157    7.155
 -86.00  761.111  251.432  801.566  776.797    0.227    7.188    7.192    7.188
 -85.00  762.187  291.461  816.014  789.878    0.267    7.183    7.188    7.184
 -84.00  758.255  335.244  829.059  801.467    0.348    7.137    7.146    7.140
 -83.00  749.340  380.979  840.628  811.485    0.448    7.051    7.065    7.057
 -82.00  735.628  427.229  850.689  819.895    0.554    6.925    6.947    6.937
 -81.00  717.462  472.838  859.260  826.705    0.659    6.762    6.794    6.782
 -80.00  695.320  516.888  866.397  831.962    0.759    6.567    6.611    6.595
 -79.00  669.793  558.662  872.196  835.750    0.852    6.344    6.401    6.380
 -78.00  641.555  597.626  876.784  838.182    0.935    6.097    6.169    6.142
 -77.00  611.342  633.407  880.309  839.390    1.008    5.834    5.920    5.886
 -76.00  579.931  665.774  882.935  839.519    1.071    5.560    5.662    5.618
 -75.00  548.126  694.614  884.834  838.720    1.124    5.282    5.400    5.344
 -74.00  516.757  719.909  886.175  837.142    1.168    5.007    5.142    5.071
 -73.00  486.676  741.713  887.126  834.924    1.203    4.743    4.893    4.804
 -72.00  458.766  760.127  887.840  832.194    1.230    4.497    4.663    4.552
 -71.00  433.934  775.280  888.458  829.064    1.250    4.278    4.457    4.322
 -70.00  413.092  787.317  889.108  825.628    1.264    4.093    4.284    4.124
 -69.00  397.108  796.379  889.896  821.961    1.273    3.950    4.150    3.967
 -68.00  386.727  802.599  890.911  818.117    1.278    3.855    4.061    3.861
 -67.00  382.460  806.095  892.224  814.129    1.277    3.813    4.021    3.813
 -66.00  384.492  806.969  893.886  810.011    1.273    3.825    4.031    3.826
 -65.00  392.639  805.308  895.928  805.757    1.263    3.890    4.090    3.899
 -64.00  406.379  801.191  898.360  801.341    1.249    4.003    4.193    4.024
 -63.00  424.940  794.698  901.176  796.721    1.230    4.159    4.337    4.191
 -62.00  447.405  785.921  904.347  791.838    1.204    4.348    4.512    4.390
 -61.00  472.806  774.985  907.825  786.619    1.171    4.563    4.711    4.611
 -60.00  500.171  762.066  911.546  780.980    1.131    4.795    4.927    4.845
 -59.00  528.559  747.416  915.427  774.833    1.082    5.036    5.151    5.085
 -58.00  557.061  731.385  919.369  768.086    1.025    5.277    5.375    5.322
 -57.00  584.801  714.440  923.265  760.656    0.959    5.511    5.594    5.550
 -56.00  610.943  697.186  926.995  752.477    0.886    5.731    5.799    5.762
 -55.00  634.693  680.355  930.440  743.519    0.807    5.929    5.984    5.953
 -54.00  655.319  664.791  933.483  733.814    0.725    6.102    6.144    6.118
 -53.00  672.170  651.397  936.018  723.510    0.646    6.242    6.275    6.251
 -52.00  684.701  641.048  937.954  713.000    0.577    6.345    6.371    6.350
 -51.00  692.502  634.493  939.224  703.221    0.529    6.409    6.431    6.411
 -50.00  695.319  632.243  939.787  696.275    0.511    6.432    6.452    6.432
 -49.00  693.069  634.482  939.634  695.303    0.528    6.412    6.434    6.413
 -48.00  685.845  641.045  938.787  700.875    0.576    6.351    6.377    6.355
 -47.00  673.912  651.438  937.299  710.097    0.644    6.250    6.283    6.259
 -46.00  657.691  664.928  935.247  720.554    0.723    6.113    6.156    6.129
 -45.00  637.739  680.644  932.731  731.130    0.804    5.945    5.999    5.967
 -44.00  614.718  697.692  929.867  741.364    0.883    5.749    5.817    5.779
 -43.00  589.376  715.229  926.778  751.079    0.957    5.533    5.615    5.570
 -42.00  562.518  732.520  923.587  760.228    1.022    5.303    5.401    5.346
 -41.00  534.994  748.962  920.414  768.828    1.079    5.066    5.180    5.113
 -40.00  507.690  764.081  917.371  776.932    1.128    4.830    4.960    4.878
 -39.00  481.519  777.525  914.552  784.604    1.169    4.603    4.749    4.649
 -38.00  457.420  789.037  912.038  791.913    1.201    4.393    4.555    4.433
 -37.00  436.341  798.438  909.889  798.927    1.227    4.209    4.384    4.239
 -36.00  419.214  805.598  908.146  805.703    1.247    4.059    4.246    4.078
 -35.00  406.893  810.420  906.831  812.286    1.262    3.951    4.147    3.959
 -34.00  400.072  812.818  905.942  818.707    1.271    3.891    4.093    3.892
 -33.00  399.198  812.709  905.459  824.977    1.276    3.883    4.087    3.883
 -32.00  404.397  810.000  905.338  831.092    1.276    3.928    4.130    3.935
 -31.00  415.463  804.583  905.518  837.025    1.273    4.025    4.222    4.043
 -30.00  431.897  796.332  905.914  842.729    1.264    4.170    4.358    4.201
 -29.00  452.998  785.107  906.421  848.136    1.250    4.356    4.532    4.400
 -28.00  477.949  770.755  906.917  853.156    1.230    4.576    4.739    4.630
 -27.00  505.888  753.123  907.258  857.679    1.203    4.822    4.970    4.882
 -26.00  535.948  732.068  907.284  861.575    1.168    5.087    5.219    5.149
 -25.00  567.282  707.470  906.820  864.697    1.125    5.362    5.478    5.423
 -24.00  599.055  679.256  905.680  866.884    1.072    5.640    5.741    5.698
 -23.00  630.456  647.418  903.673  867.969    1.009    5.915    6.000    5.967
 -22.00  660.688  612.032  900.607  867.778    0.936    6.179    6.250    6.224
 -21.00  688.981  573.284  896.298  866.148    0.853    6.427    6.484    6.464
 -20.00  714.603  531.481  890.578  862.924    0.760    6.653    6.696    6.681
 -19.00  736.879  487.069  883.304  857.979    0.659    6.850    6.882    6.870
 -18.00  755.220  440.637  874.368  851.212    0.553    7.015    7.037    7.028
 -17.00  769.149  392.921  863.700  842.567    0.444    7.144    7.158    7.152
 -16.00  778.323  344.802  851.279  832.029    0.340    7.235    7.243    7.238
 -15.00  782.554  297.321  837.132  819.632    0.250    7.285    7.289    7.285
 -14.00  781.817  251.705  821.336  805.459    0.199    7.294    7.297    7.294
 -13.00  776.248  209.460  804.012  789.636    0.212    7.264    7.267    7.265
 -12.00  766.132  172.534  785.319  772.329    0.272    7.196    7.201    7.200
 -11.00  751.875  143.508  765.448  753.732    0.348    7.094    7.102    7.101
 -10.00  733.980  125.365  744.609  734.062    0.423    6.960    6.972    6.972
  -9.00  713.006  119.925  723.021  713.543    0.492    6.798    6.816    6.816
  -8.00  689.541  125.698  700.904  692.400    0.551    6.614    6.637    6.637
  -7.00  664.168  138.572  678.470  670.851    0.599    6.412    6.440    6.440
  -6.00  637.441  154.570  655.914  649.098    0.637    6.195    6.228    6.228
  -5.00  609.869  171.096  633.414  627.325    0.664    5.968    6.005    6.005
  -4.00  581.901  186.724  611.126  605.691    0.682    5.734    5.775    5.775
  -3.00  553.922  200.755  589.180  584.335    0.691    5.497    5.540    5.540
  -2.00  526.253  212.891  567.684  563.371    0.693    5.259    5.305    5.305
  -1.00  499.151  223.063  546.726  542.889    0.688    5.023    5.070    5.070
   0.00  472.816  231.324  526.370  522.961    0.678    4.791    4.838    4.838
   1.00  447.395  237.797  506.665  503.640    0.663    4.563    4.611    4.611
   2.00  422.992  242.637  487.642  484.961    0.645    4.342    4.390    4.390
   3.00  399.675  246.012  469.321  466.947    0.625    4.128    4.175    4.175
   4.00  377.479  248.092  451.708  449.610    0.603    3.922    3.968    3.968
   5.00  356.417  249.039  434.803  432.951    0.579    3.724    3.768    3.768
   6.00  336.481  249.006  418.597  416.966    0.555    3.534    3.577    3.577
   7.00  317.650  248.130  403.076  401.642    0.531    3.353    3.395    3.395
   8.00  299.890  246.538  388.220  386.963    0.506    3.180    3.220    3.220
   9.00  283.163  244.340  374.010  372.910    0.482    3.016    3.054    3.054
  10.00  267.422  241.636  360.420  359.462    0.459    2.860    2.896    2.896
  11.00  252.619  238.513  347.426  346.594    0.436    2.712    2.746    2.746
  12.00  238.705  235.044  335.002  334.283    0.413    2.571    2.604    2.604
  13.00  225.630  231.297  323.121  322.503    0.392    2.438    2.469    2.469
  14.00  213.344  227.326  311.757  311.229    0.372    2.312    2.341    2.341
  15.00  201.799  223.180  300.886  300.438    0.352    2.192    2.220    2.220
  16.00  190.948  218.901  290.480  290.104    0.334    2.079    2.105    2.105
  17.00  180.747  214.524  280.517  280.204    0.316    1.971    1.997    1.997
  18.00  171.154  210.077  270.973  270.715    0.299    1.870    1.894    1.894
  19.00  162.129  205.587  261.824  261.616    0.284    1.774    1.796    1.796
  20.00  153.634  201.074  253.050  252.885    0.269    1.683    1.704    1.704
  21.00  145.634  196.556  244.630  244.501    0.255    1.596    1.617    1.617
  22.00  138.096  192.048  236.543  236.447    0.241    1.515    1.534    1.534
  23.00  130.989  187.560  228.772  228.703    0.229    1.437    1.455    1.455
  24.00  124.284  183.103  221.299  221.252    0.217    1.364    1.381    1.381
  25.00  117.956  178.685  214.107  214.078    0.206    1.294    1.310    1.310
  26.00  111.979  174.311  207.180  207.165    0.196    1.228    1.243    1.243
  27.00  106.332  169.987  200.504  200.498    0.186    1.165    1.180    1.180
  28.00  100.991  165.715  194.064  194.062    0.177    1.105    1.119    1.119
  29.00   95.939  161.499  187.846  187.846    0.168    1.049    1.062    1.062
  30.00   91.158  157.339  181.839  181.836    0.160    0.995    1.007    1.007
  31.00   86.630  153.238  176.030  176.020    0.152    0.943    0.956    0.955
  32.00   82.341  149.194  170.408  170.387    0.145    0.895    0.906    0.906
  33.00   78.277  145.208  164.962  164.926    0.138    0.848    0.860    0.859
  34.00   74.425  141.279  159.683  159.626    0.132    0.804    0.815    0.815
  35.00   70.774  137.405  154.561  154.479    0.126    0.762    0.772    0.772
  36.00   67.313  133.586  149.587  149.476    0.120    0.722    0.732    0.732
  37.00   64.033  129.820  144.753  144.606    0.114    0.684    0.694    0.693
  38.00   60.926  126.104  140.050  139.862    0.109    0.648    0.657    0.657
  39.00   57.984  122.436  135.472  135.237    0.104    0.613    0.622    0.622
  40.00   55.201  118.814  131.011  130.721    0.100    0.581    0.589    0.589
  41.00   52.571  115.236  126.661  126.309    0.095    0.550    0.558    0.557
  42.00   50.089  111.699  122.416  121.993    0.091    0.520    0.528    0.527
  43.00   47.752  108.200  118.269  117.767    0.087    0.492    0.500    0.499
  44.00   45.556  104.737  114.216  113.624    0.084    0.465    0.473    0.472
  45.00   43.500  101.307  110.251  109.558    0.080    0.440    0.448    0.446
  46.00   41.582   97.906  106.370  105.563    0.077    0.417    0.424    0.423
  47.00   39.801   94.532  102.569  101.634    0.073    0.395    0.401    0.400
  48.00   38.158   91.182   98.844   97.765    0.070    0.374    0.381    0.379
  49.00   36.654   87.853   95.192   93.950    0.068    0.355    0.361    0.359
  50.00   35.289   84.541   91.611   90.184    0.065    0.337    0.343    0.341
  51.00   34.065   81.245   88.097   86.464    0.062    0.321    0.327    0.325
  52.00   32.984   77.959   84.650   82.782    0.060    0.307    0.312    0.310
  53.00   32.049   74.682   81.269   79.136    0.057    0.294    0.299    0.296
  54.00   31.259   71.411   77.953   75.520    0.055    0.283    0.288    0.285
  55.00   30.617   68.141   74.704   71.930    0.053    0.274    0.279    0.275
  56.00   30.123   64.870   71.523   68.362    0.051    0.266    0.271    0.267
  57.00   29.777   61.595   68.415   64.812    0.049    0.260    0.265    0.261
  58.00   29.575   58.313   65.384   61.276    0.047    0.256    0.261    0.257
  59.00   29.516   55.020   62.437   57.751    0.045    0.254    0.258    0.254
  60.00   29.596   51.713   59.583   54.236    0.044    0.254    0.258    0.254
  61.00   29.810   48.389   56.834   50.729    0.042    0.255    0.259    0.255
  62.00   30.152   45.045   54.205   47.234    0.041    0.258    0.262    0.259
  63.00   30.615   41.680   51.715   43.763    0.040    0.263    0.266    0.263
  64.00   31.194   38.289   49.387   40.354    0.040    0.269    0.272    0.270
  65.00   31.882   34.872   47.249   37.134    0.039    0.276    0.279    0.277
  66.00   32.672   31.428   45.334   34.629    0.039    0.285    0.287    0.286
  67.00   33.559   27.957   43.678   33.939    0.039    0.294    0.297    0.296
  68.00   34.537   24.464   42.324   34.565    0.040    0.305    0.308    0.307
  69.00   35.601   20.958   41.312   35.610    0.040    0.317    0.320    0.319
  70.00   36.747   17.460   40.684   36.824    0.042    0.330    0.332    0.332
  71.00   37.973   14.015   40.477   38.140    0.043    0.343    0.346    0.346
  72.00   39.275   10.739   40.717   39.535    0.045    0.358    0.361    0.361
  73.00   40.653    7.936   41.420   41.004    0.048    0.373    0.376    0.376
  74.00   42.104    6.406   42.589   42.546    0.051    0.389    0.393    0.393
  75.00   43.629    7.164   44.214   44.163    0.054    0.407    0.410    0.410
  76.00   45.229    9.791   46.277   45.861    0.058    0.425    0.429    0.429
  77.00   46.906   13.299   48.755   47.647    0.062    0.444    0.448    0.448
  78.00   48.660   17.227   51.620   49.531    0.067    0.464    0.469    0.469
  79.00   50.497   21.407   54.847   51.526    0.072    0.486    0.491    0.491
  80.00   52.419   25.772   58.412   53.650    0.077    0.509    0.515    0.514
  81.00   54.433   30.295   62.295   55.926    0.083    0.533    0.540    0.538
  82.00   56.543   34.962   66.480   58.383    0.090    0.559    0.566    0.565
  83.00   58.758   39.769   70.952   61.062    0.097    0.586    0.594    0.593
  84.00   61.086   44.715   75.703   64.010    0.105    0.616    0.625    0.623
  85.00   63.536   49.798   80.726   67.285    0.114    0.647    0.657    0.655
  86.00   66.121   55.022   86.020   70.945    0.123    0.681    0.692    0.689
  87.00   68.853   60.388   91.582   75.041    0.133    0.717    0.729    0.726
  88.00   71.746   65.896   97.416   79.605    0.144    0.756    0.770    0.766
  89.00   74.819   71.549  103.524   84.644    0.155    0.798    0.813    0.809
  90.00   78.090   77.348  109.912   90.146    0.168    0.843    0.860    0.855
  91.00   81.582   83.290  116.588   96.091    0.181    0.892    0.910    0.905
  92.00   85.319   89.375  123.561  102.456    0.196    0.945    0.965    0.960
  93.00   89.329   95.599  130.839  109.224    0.211    1.002    1.024    1.019
  94.00   93.644  101.957  138.435  116.385    0.228    1.064    1.089    1.082
  95.00   98.297  108.440  146.361  123.936    0.246    1.132    1.158    1.152
  96.00  103.329  115.038  154.631  131.879    0.265    1.205    1.233    1.226
  97.00  108.780  121.738  163.258  140.219    0.286    1.284    1.315    1.308
  98.00  114.699  128.519  172.259  148.968    0.308    1.369    1.403    1.396
  99.00  121.135  135.360  181.648  158.138    0.332    1.462    1.499    1.491
 100.00  128.144  142.232  191.444  167.744    0.357    1.562    1.603    1.594
 101.00  135.784  149.100  201.663  177.805    0.383    1.671    1.715    1.706
 102.00  144.116  155.922  212.323  188.337    0.411    1.789    1.835    1.827
 103.00  153.207  162.646  223.441  199.360    0.440    1.916    1.966    1.957
 104.00  163.122  169.213  235.035  210.893    0.471    2.052    2.106    2.097
 105.00  173.929  175.551  247.122  222.955    0.503    2.200    2.256    2.248
 106.00  185.695  181.578  259.718  235.565    0.536    2.358    2.418    2.409
 107.00  198.485  187.198  272.836  248.739    0.569    2.527    2.591    2.582
 108.00  212.359  192.301  286.489  262.493    0.603    2.709    2.775    2.766
 109.00  227.368  196.764  300.686  276.838    0.638    2.902    2.971    2.962
 110.00  243.554  200.447  315.432  291.782    0.671    3.107    3.178    3.170
 111.00  260.941  203.199  330.727  307.327    0.704    3.324    3.397    3.389
 112.00  279.537  204.855  346.564  323.470    0.734    3.552    3.627    3.620
 113.00  299.320  205.243  362.928  340.198    0.762    3.792    3.868    3.860
 114.00  320.239  204.188  379.797  357.490    0.786    4.041    4.117    4.110
 115.00  342.203  201.524  397.133  375.309    0.805    4.300    4.374    4.368
 116.00  365.075  197.111  414.889  393.610    0.818    4.565    4.638    4.632
 117.00  388.669  190.855  433.000  412.329    0.823    4.835    4.905    4.899
 118.00  412.737  182.754  451.388  431.384    0.820    5.107    5.172    5.167
 119.00  436.974  172.950  469.955  450.678    0.806    5.378    5.438    5.434
 120.00  461.007  161.828  488.585  470.091    0.780    5.644    5.698    5.694
 121.00  484.407  150.161  507.147  489.489    0.742    5.901    5.947    5.944
 122.00  506.690  139.312  525.492  508.717    0.691    6.144    6.183    6.180
 123.00  527.333  131.409  543.459  527.608    0.627    6.368    6.399    6.396
 124.00  545.793  129.213  560.879  545.985    0.549    6.568    6.591    6.589
 125.00  561.531  135.213  577.581  563.669    0.459    6.740    6.755    6.754
 126.00  574.042  150.319  593.397  580.481    0.360    6.878    6.887    6.886
 127.00  582.883  173.558  608.174  596.258    0.253    6.979    6.983    6.982
 128.00  587.706  203.002  621.778  610.856    0.147    7.039    7.041    7.040
 129.00  588.276  236.684  634.104  624.158    0.083    7.058    7.058    7.058
 130.00  584.493  272.940  645.081  636.083    0.147    7.033    7.034    7.034
 131.00  576.395  310.431  654.674  646.588    0.255    6.965    6.970    6.970
 132.00  564.149  348.080  662.891  655.669    0.364    6.857    6.866    6.866
 133.00  548.043  385.029  669.775  663.365    0.467    6.709    6.726    6.726
 134.00  528.454  420.606  675.406  669.750    0.561    6.528    6.552    6.552
 135.00  505.824  454.309  679.893  674.929    0.643    6.315    6.348    6.348
 136.00  480.626  485.789  683.369  679.033    0.714    6.076    6.118    6.118
 137.00  453.339  514.836  685.983  682.212    0.772    5.816    5.867    5.867
 138.00  424.418  541.357  687.894  684.625    0.817    5.539    5.599    5.599
 139.00  394.280  565.359  689.266  686.438    0.851    5.250    5.318    5.318
 140.00  363.286  586.926  690.260  687.816    0.874    4.952    5.028    5.028
 141.00  331.737  606.198  691.032  688.919    0.888    4.649    4.733    4.733
 142.00  299.869  623.354  691.730  689.898    0.894    4.344    4.435    4.435
 143.00  267.855  638.590  692.491  690.895    0.893    4.041    4.138    4.138
 144.00  235.815  652.112  693.440  692.038    0.887    3.739    3.843    3.843
 145.00  203.821  664.115  694.688  693.446    0.877    3.443    3.553    3.552
 146.00  171.919  674.782  696.338  695.222    0.864    3.152    3.268    3.266
 147.00  140.165  684.268  698.476  697.456    0.849    2.868    2.991    2.988
 148.00  108.712  692.701  701.179  700.229    0.834    2.591    2.722    2.717
 149.00   78.093  700.169  704.511  703.604    0.819    2.323    2.463    2.455
 150.00   50.474  706.722  708.522  707.636    0.804    2.065    2.216    2.202
 151.00   35.642  712.362  713.253  712.365    0.791    1.818    1.983    1.961
 152.00   49.248  717.042  718.731  717.815    0.779    1.585    1.766    1.731
 153.00   78.943  720.655  724.966  723.997    0.769    1.370    1.571    1.514
 154.00  113.911  723.036  731.955  730.905    0.760    1.181    1.404    1.314
 155.00  151.689  723.951  739.672  738.510    0.754    1.028    1.275    1.132
 156.00  191.701  723.093  748.072  746.762    0.748    0.929    1.193    0.976
 157.00  233.799  720.078  757.082  755.581    0.744    0.900    1.167    0.900
 158.00  277.921  714.444  766.597  764.857    0.739    0.946    1.200    1.001
 159.00  323.977  705.657  776.474  774.440    0.732    1.056    1.285    1.156
 160.00  371.783  693.113  786.530  784.137    0.724    1.212    1.412    1.330
 161.00  421.018  676.170  796.531  793.708    0.711    1.397    1.567    1.515
 162.00  471.180  654.172  806.195  802.862    0.693    1.597    1.741    1.707
 163.00  521.553  626.508  815.187  811.255    0.667    1.804    1.923    1.902
 164.00  571.189  592.684  823.123  818.499    0.633    2.010    2.107    2.093
 165.00  618.906  552.412  829.581  824.166    0.589    2.209    2.286    2.276
 166.00  663.320  505.726  834.117  827.812    0.534    2.395    2.454    2.447
 167.00  702.908  453.105  836.292  828.998    0.468    2.563    2.605    2.600
 168.00  736.123  395.619  835.698  827.326    0.393    2.707    2.735    2.732
 169.00  761.529  335.110  832.001  822.470    0.312    2.823    2.840    2.837
 170.00  777.962  274.498  824.969  814.214    0.228    2.907    2.916    2.913
 171.00  784.671  218.427  814.505  802.481    0.153    2.956    2.960    2.958
 172.00  781.424  174.450  800.659  787.340    0.115    2.971    2.974    2.971
 173.00  768.541  153.029  783.628  769.012    0.142    2.952    2.956    2.954
 174.00  746.861  159.668  763.738  747.845    0.202    2.902    2.909    2.907
 175.00  717.636  186.262  741.415  724.285    0.264    2.825    2.837    2.834
 176.00  682.386  220.555  717.144  698.836    0.319    2.724    2.743    2.740
 177.00  642.742  254.880  691.435  672.022    0.364    2.605    2.630    2.627
 178.00  600.305  285.597  664.780  644.347    0.397    2.473    2.505    2.502
 179.00  556.536  311.198  637.634  616.273    0.419    2.333    2.371    2.367
 180.00  512.691  331.253  610.394  588.203    0.431    2.189    2.231    2.227
 181.00  469.786  345.901  583.392  560.470    0.433    2.044    2.090    2.085
 182.00  428.599  355.576  556.894  533.340    0.428    1.902    1.949    1.944
 183.00  389.687  360.851  531.102  507.016    0.418    1.763    1.812    1.807
 184.00  353.417  362.350  506.163  481.640    0.403    1.631    1.680    1.674
 185.00  320.000  360.687  482.177  457.310    0.384    1.505    1.554    1.548
 186.00  289.522  356.436  459.205  434.081    0.364    1.388    1.435    1.428
 187.00  261.977  350.115  437.278  411.981    0.342    1.278    1.323    1.316
 188.00  237.288  342.176  416.402  391.010    0.320    1.177    1.219    1.213
 189.00  215.330  333.012  396.565  371.151    0.298    1.083    1.123    1.116
 190.00  195.944  322.950  377.744  352.377    0.276    0.998    1.035    1.028
 191.00  178.948  312.267  359.907  334.648    0.256    0.920    0.954    0.947
 192.00  164.145  301.189  343.013  317.922    0.236    0.848    0.881    0.873
 193.00  151.331  289.901  327.022  302.149    0.217    0.784    0.813    0.806
 194.00  140.300  278.551  311.889  287.283    0.199    0.726    0.752    0.745
 195.00  130.848  267.257  297.569  273.272    0.183    0.673    0.697    0.690
 196.00  122.774  256.111  284.018  260.069    0.167    0.625    0.647    0.641
 197.00  115.890  245.186  271.194  247.626    0.153    0.582    0.602    0.596
 198.00  110.018  234.533  259.056  235.898    0.140    0.544    0.561    0.555
 199.00  104.997  224.193  247.562  224.841    0.128    0.509    0.525    0.519
 200.00  100.684  214.192  236.676  214.413    0.117    0.477    0.491    0.486
 201.00   96.950  204.549  226.362  204.575    0.108    0.449    0.461    0.456
 202.00   93.689  195.274  216.586  195.290    0.099    0.423    0.434    0.429
 203.00   90.809  186.371  207.317  186.524    0.090    0.399    0.409    0.405
 204.00   88.235  177.839  198.525  178.243    0.083    0.378    0.387    0.383
 205.00   85.904  169.674  190.181  170.419    0.076    0.358    0.366    0.363
 206.00   83.767  161.870  182.260  163.021    0.070    0.340    0.347    0.344
 207.00   81.785  154.416  174.738  156.024    0.065    0.324    0.330    0.327
 208.00   79.927  147.303  167.590  149.402    0.060    0.308    0.314    0.312
 209.00   78.168  140.519  160.797  143.132    0.055    0.294    0.299    0.297
 210.00   76.489  134.050  154.337  137.194    0.051    0.281    0.286    0.284
 211.00   74.877  127.885  148.193  131.566    0.048    0.269    0.273    0.271
 212.00   73.320  122.010  142.345  126.230    0.044    0.257    0.261    0.259
 213.00   71.810  116.412  136.779  121.169    0.041    0.246    0.250    0.248
 214.00   70.342  111.079  131.478  116.365    0.039    0.236    0.239    0.238
 215.00   68.910  105.998  126.428  111.805    0.036    0.227    0.229    0.228
 216.00   67.511  101.156  121.616  107.473    0.034    0.217    0.220    0.219
 217.00   66.143   96.543  117.028  103.357    0.032    0.209    0.211    0.210
 218.00   64.805   92.146  112.652   99.444    0.030    0.200    0.203    0.202
 219.00   63.494   87.955  108.479   95.723    0.028    0.193    0.195    0.194
 220.00   62.209   83.960  104.496   92.182    0.027    0.185    0.187    0.186
 221.00   60.952   80.151  100.694   88.812    0.025    0.178    0.180    0.179
 222.00   59.719   76.517   97.063   85.603    0.024    0.171    0.173    0.172
 223.00   58.512   73.052   93.596   82.547    0.023    0.165    0.166    0.166
 224.00   57.330   69.745   90.283   79.634    0.022    0.158    0.160    0.159
 225.00   56.172   66.589   87.117   76.858    0.021    0.152    0.154    0.153
 226.00   55.038   63.577   84.091   74.211    0.020    0.146    0.148    0.147
 227.00   53.928   60.701   81.197   71.685    0.019    0.141    0.142    0.142
 228.00   52.842   57.955   78.429   69.276    0.018    0.136    0.137    0.136
 229.00   51.779   55.332   75.781   66.976    0.017    0.130    0.131    0.131
 230.00   50.739   52.826   73.246   64.780    0.016    0.125    0.126    0.126
 231.00   49.722   50.431   70.821   62.683    0.016    0.121    0.122    0.122
 232.00   48.727   48.142   68.499   60.679    0.015    0.116    0.117    0.117
 233.00   47.755   45.955   66.275   58.764    0.014    0.112    0.113    0.112
 234.00   46.803   43.863   64.145   56.933    0.014    0.107    0.108    0.108
 235.00   45.873   41.864   62.104   55.183    0.013    0.103    0.104    0.104
 236.00   44.964   39.951   60.148   53.508    0.012    0.099    0.100    0.100
 237.00   44.075   38.122   58.274   51.906    0.012    0.096    0.096    0.096
 238.00   43.206   36.372   56.477   50.373    0.011    0.092    0.093    0.093
 239.00   42.356   34.699   54.754   48.905    0.011    0.088    0.089    0.089
 240.00   41.526   33.098   53.102   47.499    0.011    0.085    0.086    0.086
 241.00   40.714   31.566   51.517   46.153    0.010    0.082    0.082    0.082
 242.00   39.921   30.100   49.997   44.863    0.010    0.079    0.079    0.079
 243.00   39.146   28.698   48.538   43.626    0.009    0.076    0.076    0.076
 244.00   38.388   27.356   47.138   42.441    0.009    0.073    0.073    0.073
 245.00   37.647   26.073   45.794   41.305    0.009    0.070    0.070    0.070
 246.00   36.923   24.845   44.504   40.215    0.008    0.067    0.068    0.068
 247.00   36.215   23.670   43.265   39.169    0.008    0.064    0.065    0.065
 248.00   35.524   22.547   42.075   38.165    0.008    0.062    0.062    0.062
 249.00   34.848   21.473   40.932   37.202    0.007    0.059    0.060    0.060
 250.00   34.187   20.446   39.834   36.277    0.007    0.057    0.058    0.058
 251.00   33.541   19.465   38.780   35.388    0.007    0.055    0.055    0.055
 252.00   32.909   18.528   37.766   34.535    0.007    0.053    0.053    0.053
 253.00   32.292   17.633   36.792   33.715    0.006    0.050    0.051    0.051
 254.00   31.688   16.778   35.856   32.926    0.006    0.048    0.049    0.049
 255.00   31.098   15.963   34.956   32.169    0.006    0.046    0.047    0.047
 256.00   30.521   15.187   34.090   31.440    0.006    0.045    0.045    0.045
 257.00   29.957   14.447   33.258   30.739    0.006    0.043    0.043    0.043
 258.00   29.405   13.743   32.458   30.064    0.005    0.041    0.041    0.041
 259.00   28.865   13.074   31.688   29.415    0.005    0.039    0.039    0.039
 260.00   28.338   12.439   30.948   28.790    0.005    0.037    0.038    0.038
 261.00   27.822   11.837   30.235   28.188    0.005    0.036    0.036    0.036
 262.00   27.318   11.267   29.550   27.608    0.005    0.034    0.035    0.035
 263.00   26.824   10.729   28.890   27.050    0.004    0.033    0.033    0.033
 264.00   26.342   10.221   28.255   26.512    0.004    0.031    0.032    0.032
 265.00   25.869    9.744   27.644   25.993    0.004    0.030    0.030    0.030
 266.00   25.408    9.297   27.055   25.493    0.004    0.029    0.029    0.029
 267.00   24.956    8.880   26.489   25.010    0.004    0.027    0.028    0.028
 268.00   24.514    8.491   25.943   24.545    0.004    0.026    0.026    0.026
 269.00   24.082    8.131   25.417   24.096    0.004    0.025    0.025    0.025
 270.00   23.659    7.799   24.911   23.663    0.004    0.024    0.024    0.024
 271.00   23.245    7.495   24.423   23.245    0.003    0.022    0.023    0.023
 272.00   22.840    7.218   23.953   22.841    0.003    0.021    0.022    0.022
 273.00   22.443    6.968   23.500   22.451    0.003    0.020    0.021    0.021
 274.00   22.056    6.744   23.064   22.074    0.003    0.019    0.019    0.019
 275.00   21.676    6.545   22.643   21.710    0.003    0.018    0.019    0.018
 276.00   21.304    6.371   22.237   21.359    0.003    0.017    0.018    0.018
 277.00   20.941    6.220   21.845   21.018    0.003    0.016    0.017    0.017
 278.00   20.585    6.093   21.468   20.690    0.003    0.016    0.016    0.016
 279.00   20.237    5.986   21.103   20.371    0.003    0.015    0.015    0.015
 280.00   19.895    5.900   20.752   20.064    0.002    0.014    0.014    0.014
 281.00   19.561    5.833   20.413   19.766    0.002    0.013    0.013    0.013
 282.00   19.234    5.784   20.085   19.478    0.002    0.012    0.013    0.013
 283.00   18.914    5.750   19.769   19.199    0.002    0.012    0.012    0.012
 284.00   18.601    5.731   19.464   18.928    0.002    0.011    0.011    0.011
 285.00   18.294    5.725   19.169   18.666    0.002    0.010    0.010    0.010
 286.00   17.993    5.731   18.884   18.413    0.002    0.010    0.010    0.010
 287.00   17.699    5.748   18.609   18.167    0.002    0.009    0.009    0.009
 288.00   17.410    5.773   18.342   17.929    0.002    0.009    0.009    0.009
 289.00   17.128    5.806   18.085   17.698    0.002    0.008    0.008    0.008
 290.00   16.851    5.846   17.836   17.474    0.002    0.008    0.008    0.008
 291.00   16.580    5.892   17.596   17.256    0.002    0.007    0.007    0.007
 292.00   16.314    5.942   17.363   17.045    0.002    0.007    0.007    0.007
 293.00   16.054    5.996   17.137   16.841    0.002    0.006    0.006    0.006
 294.00   15.799    6.054   16.919   16.642    0.002    0.006    0.006    0.006
 295.00   15.549    6.113   16.708   16.449    0.002    0.006    0.006    0.006
 296.00   15.305    6.175   16.503   16.261    0.001    0.005    0.006    0.005
 297.00   15.065    6.238   16.305   16.079    0.001    0.005    0.005    0.005
 298.00   14.829    6.302   16.113   15.902    0.001    0.005    0.005    0.005
 299.00   14.599    6.366   15.927   15.730    0.001    0.005    0.005    0.005
 300.00   14.373    6.431   15.746   15.563    0.001    0.005    0.005    0.005
