Section 32 Proposed
test
32P.FLD

 DIST    B Horz   B Vert   B PROD    B MAX   E Horz   E Vert   E PROD    E MAX
 (Ft)     (mG)     (mG)     (mG)      (mG)   (kV/m)   (kV/m)   (kV/m)   (V/m)
 ----    ------   ------   ------    -----   ------   ------   ------   ------
-300.00   53.181  121.942  133.034  132.959    0.058    0.612    0.615    0.615
-299.00   54.889  124.115  135.711  135.631    0.060    0.631    0.634    0.634
-298.00   56.674  126.345  138.474  138.389    0.063    0.652    0.655    0.655
-297.00   58.542  128.633  141.328  141.237    0.066    0.673    0.676    0.676
-296.00   60.496  130.980  144.276  144.179    0.069    0.695    0.699    0.699
-295.00   62.542  133.390  147.324  147.220    0.072    0.719    0.722    0.722
-294.00   64.685  135.862  150.475  150.364    0.075    0.743    0.747    0.747
-293.00   66.932  138.399  153.734  153.616    0.079    0.768    0.773    0.773
-292.00   69.287  141.003  157.107  156.981    0.083    0.795    0.799    0.799
-291.00   71.759  143.675  160.599  160.463    0.087    0.823    0.828    0.828
-290.00   74.354  146.417  164.215  164.070    0.091    0.852    0.857    0.857
-289.00   77.080  149.230  167.961  167.806    0.095    0.883    0.888    0.888
-288.00   79.946  152.116  171.845  171.678    0.100    0.915    0.921    0.921
-287.00   82.959  155.076  175.872  175.693    0.105    0.949    0.955    0.955
-286.00   86.131  158.112  180.049  179.858    0.110    0.985    0.991    0.991
-285.00   89.470  161.224  184.386  184.180    0.116    1.022    1.029    1.029
-284.00   92.989  164.413  188.888  188.667    0.122    1.061    1.068    1.068
-283.00   96.699  167.681  193.566  193.328    0.128    1.103    1.110    1.110
-282.00  100.613  171.027  198.427  198.171    0.135    1.146    1.154    1.154
-281.00  104.745  174.452  203.482  203.207    0.142    1.192    1.201    1.200
-280.00  109.109  177.954  208.741  208.444    0.150    1.240    1.249    1.249
-279.00  113.723  181.534  214.214  213.894    0.158    1.291    1.301    1.301
-278.00  118.602  185.190  219.913  219.568    0.167    1.345    1.355    1.355
-277.00  123.767  188.919  225.851  225.478    0.176    1.401    1.412    1.412
-276.00  129.236  192.719  232.040  231.637    0.186    1.461    1.472    1.472
-275.00  135.031  196.585  238.494  238.058    0.196    1.524    1.536    1.536
-274.00  141.177  200.513  245.227  244.755    0.207    1.590    1.603    1.603
-273.00  147.697  204.495  252.255  251.743    0.219    1.660    1.675    1.675
-272.00  154.620  208.524  259.594  259.039    0.231    1.734    1.750    1.750
-271.00  161.973  212.589  267.262  266.659    0.244    1.813    1.829    1.829
-270.00  169.787  216.678  275.276  274.621    0.258    1.896    1.913    1.913
-269.00  178.097  220.776  283.656  282.943    0.273    1.983    2.002    2.002
-268.00  186.938  224.866  292.422  291.646    0.289    2.076    2.096    2.096
-267.00  196.346  228.926  301.594  300.749    0.306    2.174    2.196    2.196
-266.00  206.364  232.932  311.196  310.274    0.323    2.278    2.301    2.301
-265.00  217.032  236.852  321.250  320.244    0.342    2.388    2.412    2.412
-264.00  228.396  240.652  331.780  330.680    0.361    2.504    2.530    2.530
-263.00  240.502  244.291  342.811  341.607    0.381    2.627    2.654    2.654
-262.00  253.399  247.719  354.367  353.049    0.403    2.756    2.786    2.786
-261.00  267.136  250.882  366.475  365.030    0.425    2.893    2.924    2.924
-260.00  281.764  253.714  379.159  377.574    0.448    3.038    3.071    3.071
-259.00  297.331  256.139  392.445  390.705    0.471    3.190    3.225    3.225
-258.00  313.887  258.072  406.358  404.445    0.495    3.351    3.388    3.387
-257.00  331.477  259.415  420.919  418.815    0.520    3.520    3.558    3.558
-256.00  350.141  260.056  436.151  433.833    0.544    3.698    3.737    3.737
-255.00  369.911  259.871  452.070  449.515    0.568    3.883    3.925    3.925
-254.00  390.810  258.722  468.689  465.871    0.592    4.078    4.120    4.120
-253.00  412.844  256.459  486.016  482.904    0.614    4.280    4.324    4.324
-252.00  436.002  252.921  504.050  500.612    0.634    4.490    4.535    4.535
-251.00  460.247  247.942  522.784  518.983    0.652    4.708    4.753    4.753
-250.00  485.514  241.355  542.196  537.990    0.666    4.932    4.976    4.976
-249.00  511.698  233.009  562.252  557.598    0.676    5.160    5.205    5.205
-248.00  538.650  222.785  582.904  577.750    0.681    5.393    5.436    5.436
-247.00  566.171  210.633  604.083  598.374    0.680    5.627    5.668    5.668
-246.00  594.005  196.623  625.701  619.378    0.671    5.860    5.898    5.898
-245.00  621.830  181.043  647.649  640.645    0.653    6.090    6.125    6.125
-244.00  649.263  164.562  669.793  662.036    0.626    6.314    6.345    6.344
-243.00  675.852  148.510  691.977  683.390    0.589    6.527    6.553    6.553
-242.00  701.091  135.267  714.021  704.520    0.540    6.726    6.748    6.747
-241.00  724.425  128.475  735.729  725.225    0.482    6.906    6.923    6.923
-240.00  745.270  132.107  756.888  745.286    0.413    7.064    7.076    7.076
-239.00  763.040  148.096  777.279  764.477    0.339    7.195    7.203    7.202
-238.00  777.174  175.221  796.682  782.575    0.264    7.295    7.300    7.298
-237.00  787.170  210.725  814.888  799.365    0.207    7.360    7.363    7.361
-236.00  792.622  251.973  831.709  814.654    0.199    7.387    7.390    7.387
-235.00  793.245  296.902  846.988  828.279    0.253    7.375    7.380    7.376
-234.00  788.903  343.911  860.606  840.116    0.344    7.323    7.331    7.326
-233.00  779.620  391.704  872.490  850.087    0.449    7.231    7.245    7.238
-232.00  765.584  439.196  882.617  858.161    0.558    7.100    7.122    7.113
-231.00  747.136  485.477  891.011  864.354    0.664    6.933    6.965    6.953
-230.00  724.755  529.790  897.745  868.730    0.765    6.734    6.777    6.762
-229.00  699.026  571.531  902.932  871.390    0.857    6.507    6.563    6.543
-228.00  670.623  610.247  906.717  872.466    0.940    6.258    6.328    6.302
-227.00  640.273  645.620  909.271  872.113    1.013    5.992    6.077    6.044
-226.00  608.743  677.461  910.781  870.500    1.076    5.716    5.816    5.774
-225.00  576.822  705.688  911.438  867.799    1.128    5.436    5.552    5.498
-224.00  545.316  730.307  911.437  864.180    1.171    5.160    5.291    5.222
-223.00  515.043  751.389  910.964  859.804    1.206    4.894    5.040    4.954
-222.00  486.842  769.049  910.193  854.818    1.233    4.646    4.806    4.699
-221.00  461.559  783.429  909.285  849.351    1.253    4.423    4.597    4.467
-220.00  440.042  794.683  908.381  843.515    1.266    4.234    4.420    4.266
-219.00  423.093  802.958  907.606  837.397    1.275    4.086    4.280    4.104
-218.00  411.411  808.396  907.063  831.066    1.279    3.984    4.184    3.991
-217.00  405.502  811.119  906.833  824.567    1.279    3.934    4.136    3.934
-216.00  405.597  811.235  906.979  817.927    1.274    3.936    4.137    3.937
-215.00  411.607  808.834  907.542  811.151    1.264    3.990    4.186    3.997
-214.00  423.124  804.000  908.543  804.225    1.250    4.093    4.279    4.110
-213.00  439.489  796.814  909.979  797.119    1.230    4.237    4.412    4.265
-212.00  459.869  787.372  911.830  789.789    1.204    4.416    4.577    4.454
-211.00  483.346  775.803  914.054  782.177    1.171    4.622    4.768    4.665
-210.00  508.975  762.285  916.588  774.219    1.131    4.845    4.975    4.891
-209.00  535.811  747.072  919.353  765.848    1.082    5.077    5.191    5.123
-208.00  562.935  730.515  922.252  757.001    1.025    5.311    5.409    5.353
-207.00  589.453  713.087  925.174  747.635    0.959    5.538    5.621    5.575
-206.00  614.504  695.391  928.000  737.743    0.886    5.752    5.820    5.782
-205.00  637.274  678.165  930.605  727.392    0.807    5.946    6.000    5.968
-204.00  657.009  662.254  932.867  716.800    0.725    6.113    6.156    6.128
-203.00  673.038  648.561  934.672  706.517    0.646    6.249    6.282    6.257
-202.00  684.800  637.962  935.920  697.836    0.578    6.348    6.374    6.352
-201.00  691.866  631.203  936.534  693.340    0.530    6.408    6.430    6.409
-200.00  693.966  628.785  936.461  695.444    0.513    6.427    6.447    6.427
-199.00  691.003  630.885  935.681  702.886    0.530    6.403    6.425    6.404
-198.00  683.053  637.320  934.205  712.681    0.578    6.338    6.364    6.342
-197.00  670.367  647.584  932.071  723.010    0.647    6.233    6.266    6.243
-196.00  653.351  660.925  929.349  733.059    0.725    6.092    6.135    6.108
-195.00  632.542  676.463  926.128  742.482    0.807    5.918    5.973    5.942
-194.00  608.589  693.291  922.514  751.150    0.886    5.718    5.786    5.750
-193.00  582.218  710.560  918.625  759.038    0.959    5.496    5.579    5.536
-192.00  554.216  727.531  914.580  766.182    1.025    5.260    5.359    5.306
-191.00  525.417  743.599  910.495  772.649    1.082    5.017    5.132    5.067
-190.00  496.690  758.291  906.480  778.525    1.130    4.774    4.906    4.826
-189.00  468.943  771.256  902.631  783.899    1.171    4.539    4.688    4.589
-188.00  443.121  782.240  899.030  788.863    1.204    4.321    4.486    4.365
-187.00  420.200  791.067  895.743  793.500    1.229    4.129    4.308    4.163
-186.00  401.167  797.611  892.814  797.882    1.249    3.970    4.162    3.992
-185.00  386.960  801.777  890.273  802.068    1.263    3.853    4.055    3.864
-184.00  378.384  803.488  888.126  806.100    1.273    3.785    3.993    3.787
-183.00  375.991  802.663  886.362  810.004    1.277    3.771    3.981    3.771
-182.00  379.988  799.216  884.950  813.785    1.278    3.811    4.019    3.817
-181.00  390.196  793.044  883.839  817.431    1.273    3.904    4.107    3.922
-180.00  406.097  784.029  882.958  820.907    1.265    4.047    4.240    4.078
-179.00  426.931  772.038  882.220  824.159    1.250    4.232    4.413    4.277
-178.00  451.807  756.929  881.517  827.114    1.230    4.451    4.618    4.506
-177.00  479.796  738.559  880.724  829.678    1.203    4.697    4.849    4.759
-176.00  509.974  716.798  879.700  831.740    1.168    4.962    5.098    5.026
-175.00  541.447  691.543  878.292  833.173    1.124    5.237    5.357    5.300
-174.00  573.355  662.743  876.336  833.838    1.071    5.516    5.619    5.575
-173.00  604.865  630.415  873.662  833.588    1.008    5.791    5.878    5.843
-172.00  635.170  594.671  870.101  832.273    0.935    6.055    6.126    6.100
-171.00  663.492  555.744  865.490  829.751    0.852    6.301    6.359    6.338
-170.00  689.094  514.005  859.681  825.889    0.759    6.525    6.569    6.553
-169.00  711.303  469.990  852.550  820.576    0.659    6.721    6.753    6.741
-168.00  729.528  424.417  844.003  813.730    0.554    6.884    6.906    6.896
-167.00  743.292  378.208  833.981  805.304    0.448    7.010    7.024    7.016
-166.00  752.253  332.525  822.471  795.290    0.348    7.096    7.105    7.099
-165.00  756.225  288.815  809.501  783.726    0.267    7.142    7.147    7.143
-164.00  755.184  248.902  795.145  770.690    0.228    7.147    7.151    7.147
-163.00  749.267  215.051  779.517  756.300    0.247    7.112    7.116    7.113
-162.00  738.757  189.873  762.768  740.710    0.306    7.038    7.045    7.043
-161.00  724.065  175.671  745.071  724.099    0.381    6.929    6.940    6.938
-160.00  705.691  173.142  726.621  706.661    0.455    6.789    6.804    6.802
-159.00  684.196  180.556  707.620  688.602    0.524    6.620    6.641    6.640
-158.00  660.168  194.653  688.267  670.125    0.583    6.429    6.455    6.454
-157.00  634.190  212.228  668.758  651.426    0.632    6.218    6.250    6.249
-156.00  606.816  230.927  649.271  632.687    0.670    5.993    6.030    6.029
-155.00  578.555  249.268  629.968  614.072    0.698    5.757    5.799    5.798
-154.00  549.855  266.397  610.990  595.725    0.717    5.514    5.560    5.559
-153.00  521.102  281.878  592.455  577.770    0.727    5.267    5.317    5.316
-152.00  492.617  295.529  574.464  560.306    0.730    5.020    5.072    5.071
-151.00  464.656  307.324  557.094  543.417    0.726    4.773    4.828    4.827
-150.00  437.418  317.337  540.405  527.165    0.717    4.530    4.587    4.585
-149.00  411.053  325.690  524.441  511.597    0.704    4.292    4.349    4.348
-148.00  385.664  332.537  509.232  496.746    0.688    4.060    4.118    4.116
-147.00  361.320  338.041  494.797  482.632    0.670    3.834    3.893    3.891
-146.00  338.057  342.368  481.143  469.268    0.649    3.617    3.675    3.673
-145.00  315.890  345.675  468.271  456.656    0.628    3.407    3.465    3.462
-144.00  294.815  348.110  456.175  444.794    0.606    3.206    3.263    3.260
-143.00  274.812  349.809  444.846  433.672    0.584    3.013    3.069    3.066
-142.00  255.856  350.895  434.269  423.280    0.562    2.829    2.885    2.881
-141.00  237.914  351.479  424.429  413.603    0.541    2.654    2.708    2.704
-140.00  220.948  351.656  415.307  404.627    0.520    2.487    2.541    2.535
-139.00  204.926  351.514  406.886  396.334    0.501    2.328    2.381    2.374
-138.00  189.812  351.126  399.147  388.707    0.482    2.178    2.231    2.222
-137.00  175.581  350.558  392.071  381.730    0.465    2.036    2.089    2.079
-136.00  162.211  349.865  385.640  375.386    0.449    1.903    1.955    1.943
-135.00  149.693  349.097  379.838  369.660    0.434    1.778    1.830    1.816
-134.00  138.032  348.294  374.649  364.537    0.421    1.662    1.715    1.697
-133.00  127.248  347.492  370.058  360.003    0.409    1.555    1.608    1.587
-132.00  117.384  346.720  366.052  356.047    0.398    1.458    1.512    1.486
-131.00  108.509  346.003  362.618  352.656    0.389    1.372    1.426    1.395
-130.00  100.720  345.361  359.748  349.822    0.381    1.297    1.351    1.315
-129.00   94.143  344.810  357.431  347.537    0.375    1.234    1.289    1.246
-128.00   88.926  344.365  355.661  345.793    0.370    1.184    1.240    1.192
-127.00   85.223  344.034  354.433  344.585    0.366    1.148    1.205    1.152
-126.00   83.168  343.825  353.741  343.910    0.364    1.128    1.186    1.129
-125.00   82.845  343.741  353.583  343.766    0.363    1.124    1.181    1.124
-124.00   84.261  343.785  353.960  344.151    0.364    1.135    1.192    1.137
-123.00   87.348  343.953  354.871  345.066    0.366    1.162    1.218    1.167
-122.00   91.978  344.244  356.320  346.513    0.369    1.204    1.259    1.213
-121.00   97.993  344.649  358.310  348.497    0.374    1.259    1.313    1.274
-120.00  105.238  345.160  360.846  351.021    0.381    1.327    1.380    1.347
-119.00  113.574  345.762  363.938  354.094    0.388    1.406    1.459    1.431
-118.00  122.894  346.440  367.592  357.723    0.397    1.496    1.548    1.525
-117.00  133.119  347.173  371.820  361.918    0.408    1.596    1.648    1.628
-116.00  144.196  347.937  376.633  366.690    0.420    1.705    1.756    1.740
-115.00  156.096  348.701  382.045  372.050    0.433    1.823    1.874    1.861
-114.00  168.809  349.432  388.071  378.013    0.448    1.950    2.000    1.989
-113.00  182.341  350.087  394.727  384.594    0.464    2.084    2.135    2.126
-112.00  196.707  350.620  402.029  391.807    0.481    2.227    2.278    2.271
-111.00  211.933  350.972  409.997  399.671    0.500    2.378    2.430    2.424
-110.00  228.052  351.081  418.647  408.200    0.519    2.537    2.590    2.584
-109.00  245.098  350.871  427.999  417.413    0.540    2.704    2.758    2.753
-108.00  263.112  350.256  438.072  427.325    0.561    2.880    2.934    2.931
-107.00  282.129  349.141  448.883  437.954    0.582    3.064    3.119    3.116
-106.00  302.185  347.414  460.448  449.312    0.604    3.257    3.313    3.310
-105.00  323.308  344.954  472.781  461.411    0.626    3.458    3.514    3.512
-104.00  345.517  341.626  485.892  474.258    0.648    3.668    3.724    3.723
-103.00  368.818  337.282  499.786  487.858    0.668    3.885    3.942    3.940
-102.00  393.198  331.765  514.463  502.205    0.686    4.110    4.167    4.165
-101.00  418.619  324.912  529.915  517.289    0.702    4.342    4.398    4.397
-100.00  445.015  316.561  546.122  533.089    0.715    4.579    4.635    4.634
 -99.00  472.281  306.560  563.053  549.569    0.724    4.822    4.876    4.875
 -98.00  500.271  294.790  580.665  566.683    0.728    5.068    5.120    5.119
 -97.00  528.784  281.183  598.896  584.365    0.725    5.315    5.364    5.363
 -96.00  557.564  265.770  617.666  602.534    0.715    5.561    5.607    5.606
 -95.00  586.291  248.742  636.875  621.085    0.696    5.803    5.845    5.844
 -94.00  614.581  230.552  656.402  639.893    0.668    6.039    6.076    6.075
 -93.00  641.985  212.069  676.105  658.814    0.630    6.263    6.295    6.294
 -92.00  667.995  194.800  695.819  677.681    0.581    6.474    6.500    6.498
 -91.00  692.056  181.113  715.363  696.308    0.522    6.665    6.685    6.684
 -90.00  713.587  174.195  734.541  714.497    0.454    6.833    6.848    6.846
 -89.00  732.001  177.230  753.150  732.044    0.379    6.973    6.983    6.981
 -88.00  746.736  191.846  770.986  748.740    0.305    7.081    7.088    7.086
 -87.00  757.293  217.306  787.854  764.387    0.246    7.155    7.159    7.156
 -86.00  763.263  251.325  803.576  778.807    0.227    7.190    7.193    7.190
 -85.00  764.363  291.337  818.002  791.844    0.267    7.185    7.190    7.185
 -84.00  760.456  335.108  831.018  803.380    0.348    7.139    7.147    7.141
 -83.00  751.568  380.835  842.549  813.335    0.448    7.052    7.066    7.059
 -82.00  737.885  427.078  852.567  821.674    0.554    6.926    6.948    6.939
 -81.00  719.751  472.683  861.087  828.405    0.659    6.764    6.796    6.783
 -80.00  697.643  516.730  868.168  833.575    0.759    6.568    6.612    6.596
 -79.00  672.152  558.501  873.906  837.270    0.852    6.345    6.402    6.381
 -78.00  643.954  597.463  878.429  839.603    0.935    6.099    6.170    6.143
 -77.00  613.782  633.242  881.887  840.706    1.008    5.835    5.922    5.887
 -76.00  582.414  665.607  884.443  840.727    1.071    5.561    5.663    5.620
 -75.00  550.653  694.446  886.270  839.817    1.124    5.283    5.402    5.346
 -74.00  519.326  719.741  887.539  838.124    1.168    5.009    5.143    5.072
 -73.00  489.283  741.544  888.417  835.790    1.203    4.745    4.895    4.805
 -72.00  461.402  759.956  889.059  832.941    1.230    4.499    4.664    4.553
 -71.00  436.584  775.109  889.606  829.692    1.250    4.279    4.458    4.324
 -70.00  415.733  787.145  890.186  826.136    1.264    4.094    4.285    4.125
 -69.00  399.710  796.206  890.905  822.348    1.273    3.951    4.151    3.968
 -68.00  389.253  802.425  891.854  818.383    1.278    3.856    4.062    3.862
 -67.00  384.871  805.920  893.103  814.273    1.277    3.814    4.022    3.814
 -66.00  386.752  806.794  894.703  810.034    1.273    3.826    4.032    3.827
 -65.00  394.722  805.132  896.685  805.659    1.263    3.890    4.090    3.900
 -64.00  408.270  801.015  899.060  801.124    1.249    4.004    4.194    4.025
 -63.00  426.636  794.521  901.821  796.385    1.230    4.159    4.337    4.192
 -62.00  448.913  785.743  904.939  791.385    1.204    4.349    4.512    4.391
 -61.00  474.138  774.807  908.367  786.052    1.171    4.564    4.712    4.612
 -60.00  501.343  761.888  912.040  780.302    1.131    4.796    4.927    4.846
 -59.00  529.587  747.238  915.875  774.048    1.082    5.036    5.151    5.085
 -58.00  557.961  731.206  919.773  767.201    1.025    5.277    5.376    5.322
 -57.00  585.588  714.263  923.626  759.679    0.959    5.511    5.594    5.550
 -56.00  611.628  697.010  927.314  751.421    0.886    5.731    5.799    5.762
 -55.00  635.287  680.182  930.719  742.402    0.807    5.929    5.984    5.953
 -54.00  655.831  664.622  933.722  732.663    0.725    6.102    6.144    6.118
 -53.00  672.604  651.232  936.216  722.375    0.646    6.242    6.275    6.251
 -52.00  685.063  640.891  938.111  711.972    0.577    6.345    6.371    6.350
 -51.00  692.794  634.345  939.339  702.488    0.529    6.409    6.431    6.410
 -50.00  695.542  632.104  939.859  696.169    0.511    6.432    6.452    6.432
 -49.00  693.221  634.355  939.660  696.028    0.528    6.412    6.434    6.413
 -48.00  685.922  640.931  938.766  702.123    0.576    6.351    6.377    6.355
 -47.00  673.910  651.337  937.227  711.509    0.644    6.250    6.283    6.259
 -46.00  657.602  664.839  935.121  721.958    0.723    6.113    6.156    6.128
 -45.00  637.553  680.568  932.548  732.453    0.804    5.944    5.998    5.967
 -44.00  614.423  697.627  929.623  742.572    0.883    5.749    5.816    5.779
 -43.00  588.956  715.175  926.468  752.154    0.956    5.533    5.615    5.570
 -42.00  561.954  732.476  923.208  761.158    1.022    5.302    5.400    5.345
 -41.00  534.264  748.926  919.961  769.607    1.079    5.066    5.179    5.112
 -40.00  506.770  764.054  916.839  777.552    1.128    4.830    4.960    4.877
 -39.00  480.382  777.505  913.937  785.061    1.169    4.602    4.748    4.648
 -38.00  456.038  789.024  911.334  792.205    1.201    4.392    4.554    4.432
 -37.00  434.689  798.432  909.092  799.049    1.227    4.208    4.383    4.238
 -36.00  417.273  805.598  907.251  805.654    1.247    4.058    4.245    4.077
 -35.00  404.653  810.424  905.832  812.063    1.262    3.949    4.146    3.958
 -34.00  397.540  812.828  904.835  818.308    1.271    3.889    4.092    3.890
 -33.00  396.393  812.723  904.238  824.401    1.276    3.881    4.085    3.881
 -32.00  401.353  810.019  904.000  830.337    1.276    3.926    4.129    3.933
 -31.00  412.222  804.606  904.056  836.089    1.273    4.024    4.220    4.041
 -30.00  428.502  796.360  904.325  841.611    1.264    4.168    4.356    4.199
 -29.00  449.489  785.139  904.701  846.834    1.250    4.354    4.530    4.398
 -28.00  474.358  770.792  905.061  851.670    1.230    4.574    4.737    4.628
 -27.00  502.239  753.165  905.263  856.008    1.203    4.820    4.968    4.880
 -26.00  532.260  732.114  905.147  859.719    1.168    5.085    5.217    5.147
 -25.00  563.565  707.521  904.540  862.656    1.125    5.360    5.476    5.421
 -24.00  595.318  679.313  903.255  864.661    1.072    5.638    5.739    5.696
 -23.00  626.703  647.480  901.103  865.565    1.009    5.913    5.999    5.965
 -22.00  656.921  612.101  897.893  865.198    0.936    6.178    6.248    6.222
 -21.00  685.200  573.359  893.443  863.395    0.853    6.425    6.482    6.462
 -20.00  710.807  531.564  887.585  860.005    0.760    6.651    6.694    6.679
 -19.00  733.068  487.160  880.178  854.900    0.659    6.848    6.880    6.868
 -18.00  751.392  440.737  871.114  847.983    0.553    7.013    7.035    7.026
 -17.00  765.303  393.032  860.327  839.197    0.444    7.142    7.156    7.149
 -16.00  774.457  344.926  847.795  828.528    0.340    7.233    7.241    7.236
 -15.00  778.665  297.459  833.548  816.013    0.250    7.283    7.287    7.283
 -14.00  777.904  251.861  817.661  801.734    0.200    7.292    7.295    7.292
 -13.00  772.310  209.636  800.257  785.818    0.212    7.262    7.265    7.263
 -12.00  762.167  172.733  781.496  768.431    0.272    7.194    7.199    7.198
 -11.00  747.882  143.727  761.567  749.768    0.348    7.091    7.100    7.099
 -10.00  729.957  125.590  740.682  730.043    0.423    6.957    6.970    6.969
  -9.00  708.952  120.132  719.058  709.482    0.492    6.796    6.814    6.813
  -8.00  685.454  125.868  696.914  688.308    0.551    6.612    6.635    6.634
  -7.00  660.047  138.701  674.462  666.738    0.599    6.409    6.437    6.437
  -6.00  633.285  154.663  651.898  644.973    0.637    6.192    6.225    6.225
  -5.00  605.677  171.158  629.396  623.197    0.664    5.965    6.002    6.002
  -4.00  577.672  186.763  607.112  601.567    0.682    5.731    5.772    5.772
  -3.00  549.655  200.774  585.176  580.221    0.691    5.494    5.538    5.538
  -2.00  521.947  212.894  563.695  559.273    0.693    5.256    5.302    5.302
  -1.00  494.805  223.051  542.756  538.811    0.688    5.020    5.067    5.067
   0.00  468.428  231.299  522.422  518.907    0.678    4.788    4.835    4.835
   1.00  442.965  237.760  502.741  499.612    0.663    4.560    4.608    4.608
   2.00  418.520  242.590  483.745  480.962    0.646    4.339    4.387    4.387
   3.00  395.159  245.955  465.451  462.979    0.625    4.125    4.172    4.172
   4.00  372.920  248.025  447.868  445.674    0.603    3.918    3.964    3.964
   5.00  351.812  248.963  430.993  429.048    0.580    3.720    3.765    3.765
   6.00  331.831  248.921  414.817  413.097    0.555    3.531    3.574    3.574
   7.00  312.952  248.036  399.326  397.806    0.531    3.349    3.391    3.391
   8.00  295.145  246.435  384.501  383.162    0.506    3.177    3.217    3.217
   9.00  278.369  244.229  370.320  369.143    0.482    3.012    3.051    3.051
  10.00  262.579  241.516  356.760  355.727    0.459    2.856    2.893    2.893
  11.00  247.727  238.383  343.795  342.892    0.436    2.708    2.743    2.743
  12.00  233.762  234.906  331.399  330.613    0.414    2.567    2.600    2.600
  13.00  220.635  231.150  319.546  318.865    0.392    2.434    2.465    2.465
  14.00  208.296  227.170  308.210  307.622    0.372    2.308    2.337    2.337
  15.00  196.698  223.015  297.365  296.860    0.352    2.188    2.216    2.216
  16.00  185.793  218.726  286.985  286.556    0.334    2.075    2.101    2.101
  17.00  175.537  214.339  277.046  276.684    0.316    1.967    1.993    1.992
  18.00  165.888  209.883  267.525  267.223    0.300    1.866    1.890    1.890
  19.00  156.806  205.383  258.399  258.150    0.284    1.769    1.792    1.792
  20.00  148.252  200.860  249.647  249.444    0.269    1.678    1.700    1.700
  21.00  140.193  196.332  241.247  241.085    0.255    1.592    1.612    1.612
  22.00  132.595  191.812  233.181  233.055    0.242    1.510    1.529    1.529
  23.00  125.427  187.314  225.429  225.334    0.229    1.433    1.451    1.451
  24.00  118.660  182.846  217.974  217.905    0.217    1.359    1.376    1.376
  25.00  112.269  178.416  210.800  210.752    0.206    1.289    1.306    1.306
  26.00  106.228  174.030  203.890  203.860    0.196    1.223    1.239    1.239
  27.00  100.515  169.694  197.229  197.212    0.186    1.160    1.175    1.175
  28.00   95.108  165.410  190.803  190.796    0.177    1.100    1.115    1.114
  29.00   89.989  161.181  184.600  184.598    0.168    1.044    1.057    1.057
  30.00   85.138  157.008  178.606  178.606    0.160    0.990    1.003    1.002
  31.00   80.541  152.893  172.809  172.807    0.152    0.938    0.951    0.951
  32.00   76.181  148.835  167.199  167.190    0.145    0.890    0.901    0.901
  33.00   72.046  144.835  161.765  161.745    0.138    0.843    0.854    0.854
  34.00   68.122  140.891  156.496  156.461    0.132    0.799    0.810    0.810
  35.00   64.398  137.002  151.383  151.329    0.126    0.757    0.767    0.767
  36.00   60.864  133.168  146.417  146.339    0.120    0.717    0.727    0.727
  37.00   57.512  129.385  141.591  141.483    0.115    0.679    0.688    0.688
  38.00   54.332  125.652  136.896  136.752    0.109    0.642    0.652    0.651
  39.00   51.318  121.967  132.324  132.139    0.105    0.608    0.617    0.616
  40.00   48.464  118.328  127.868  127.636    0.100    0.575    0.584    0.583
  41.00   45.765  114.732  123.523  123.236    0.096    0.544    0.552    0.552
  42.00   43.219  111.176  119.281  118.931    0.091    0.514    0.522    0.522
  43.00   40.821  107.658  115.137  114.716    0.087    0.486    0.494    0.493
  44.00   38.571  104.174  111.086  110.583    0.084    0.459    0.467    0.466
  45.00   36.468  100.723  107.122  106.527    0.080    0.434    0.442    0.441
  46.00   34.513   97.301  103.241  102.541    0.077    0.411    0.418    0.417
  47.00   32.709   93.905   99.438   98.621    0.074    0.389    0.395    0.394
  48.00   31.058   90.532   95.711   94.760    0.071    0.368    0.374    0.373
  49.00   29.564   87.179   92.056   90.953    0.068    0.349    0.355    0.353
  50.00   28.232   83.843   88.469   87.195    0.065    0.331    0.337    0.335
  51.00   27.067   80.521   84.949   83.481    0.062    0.315    0.321    0.318
  52.00   26.074   77.210   81.493   79.805    0.060    0.300    0.306    0.303
  53.00   25.257   73.906   78.102   76.163    0.057    0.287    0.293    0.290
  54.00   24.619   70.606   74.775   72.551    0.055    0.276    0.282    0.278
  55.00   24.161   67.307   71.512   68.963    0.053    0.267    0.272    0.268
  56.00   23.882   64.006   68.317   65.396    0.051    0.259    0.264    0.260
  57.00   23.778   60.700   65.191   61.844    0.049    0.254    0.258    0.254
  58.00   23.841   57.384   62.140   58.303    0.047    0.250    0.254    0.250
  59.00   24.063   54.057   59.171   54.770    0.045    0.248    0.252    0.248
  60.00   24.434   50.715   56.294   51.241    0.044    0.248    0.252    0.248
  61.00   24.940   47.354   53.520   47.711    0.042    0.249    0.253    0.250
  62.00   25.570   43.972   50.866   44.181    0.041    0.253    0.256    0.253
  63.00   26.311   40.565   48.351   40.652    0.040    0.257    0.260    0.258
  64.00   27.152   37.132   46.000   37.140    0.040    0.263    0.266    0.264
  65.00   28.082   33.670   43.844   33.721    0.039    0.271    0.274    0.272
  66.00   29.093   30.178   41.918   31.072    0.039    0.280    0.282    0.281
  67.00   30.174   26.657   40.263   31.080    0.039    0.289    0.292    0.291
  68.00   31.321   23.110   38.924   32.043    0.040    0.300    0.303    0.302
  69.00   32.527   19.546   37.948   33.172    0.040    0.312    0.315    0.314
  70.00   33.787   15.988   37.379   34.377    0.042    0.325    0.327    0.327
  71.00   35.099   12.489   37.255   35.637    0.043    0.338    0.341    0.341
  72.00   36.460    9.190   37.600   36.947    0.045    0.353    0.356    0.356
  73.00   37.867    6.527   38.426   38.307    0.048    0.368    0.371    0.371
  74.00   39.321    5.670   39.728   39.716    0.051    0.385    0.388    0.388
  75.00   40.822    7.414   41.490   41.176    0.054    0.402    0.405    0.405
  76.00   42.371   10.638   43.686   42.691    0.058    0.420    0.424    0.424
  77.00   43.969   14.459   46.285   44.263    0.062    0.439    0.443    0.443
  78.00   45.618   18.580   49.256   45.896    0.066    0.459    0.464    0.464
  79.00   47.322   22.898   52.571   47.597    0.071    0.481    0.486    0.485
  80.00   49.086   27.376   56.204   49.375    0.077    0.503    0.509    0.508
  81.00   50.914   31.997   60.134   51.241    0.083    0.528    0.534    0.533
  82.00   52.812   36.756   64.344   53.218    0.090    0.553    0.560    0.559
  83.00   54.788   41.649   68.822   55.342    0.097    0.580    0.589    0.587
  84.00   56.851   46.679   73.559   57.684    0.105    0.610    0.619    0.616
  85.00   59.009   51.847   78.550   60.376    0.114    0.641    0.651    0.648
  86.00   61.275   57.155   83.793   63.638    0.123    0.674    0.686    0.683
  87.00   63.663   62.605   89.288   67.692    0.133    0.710    0.723    0.719
  88.00   66.187   68.199   95.036   72.547    0.143    0.749    0.763    0.759
  89.00   68.866   73.940  101.042   78.027    0.155    0.791    0.806    0.802
  90.00   71.719   79.827  107.312   83.966    0.168    0.836    0.853    0.848
  91.00   74.770   85.860  113.853   90.274    0.181    0.885    0.903    0.898
  92.00   78.045   92.039  120.674   96.911    0.196    0.937    0.958    0.952
  93.00   81.575   98.358  127.784  103.861    0.211    0.995    1.017    1.011
  94.00   85.391  104.814  135.195  111.123    0.228    1.056    1.081    1.074
  95.00   89.532  111.398  142.918  118.704    0.246    1.123    1.150    1.143
  96.00   94.039  118.100  150.967  126.615    0.265    1.196    1.225    1.218
  97.00   98.958  124.906  159.355  134.871    0.286    1.275    1.307    1.299
  98.00  104.338  131.797  168.098  143.486    0.308    1.361    1.395    1.387
  99.00  110.234  138.751  177.210  152.478    0.331    1.453    1.490    1.482
 100.00  116.704  145.738  186.707  161.865    0.356    1.554    1.594    1.586
 101.00  123.809  152.725  196.606  171.668    0.383    1.662    1.706    1.697
 102.00  131.616  159.669  206.923  181.904    0.411    1.780    1.826    1.818
 103.00  140.191  166.520  217.674  192.596    0.440    1.906    1.956    1.948
 104.00  149.604  173.216  228.878  203.761    0.471    2.043    2.097    2.088
 105.00  159.924  179.687  240.548  215.420    0.503    2.190    2.247    2.238
 106.00  171.221  185.851  252.700  227.592    0.535    2.348    2.408    2.400
 107.00  183.560  191.611  265.347  240.292    0.569    2.518    2.581    2.572
 108.00  197.001  196.858  278.500  253.536    0.603    2.699    2.765    2.757
 109.00  211.596  201.468  292.168  267.336    0.637    2.892    2.961    2.953
 110.00  227.385  205.302  306.354  281.699    0.671    3.097    3.169    3.160
 111.00  244.394  208.207  321.058  296.628    0.704    3.314    3.387    3.379
 112.00  262.626  210.018  336.273  312.120    0.734    3.542    3.617    3.610
 113.00  282.060  210.560  351.985  328.164    0.762    3.782    3.858    3.850
 114.00  302.641  209.659  368.169  344.738    0.786    4.031    4.107    4.100
 115.00  324.278  207.144  384.792  361.809    0.805    4.289    4.364    4.358
 116.00  346.832  202.869  401.806  379.334    0.818    4.554    4.627    4.621
 117.00  370.113  196.733  419.151  397.252    0.823    4.824    4.894    4.889
 118.00  393.873  188.717  436.750  415.486    0.819    5.096    5.162    5.157
 119.00  417.803  178.939  454.509  433.943    0.805    5.367    5.427    5.423
 120.00  441.530  167.740  472.319  452.512    0.780    5.633    5.687    5.683
 121.00  464.621  155.820  490.054  471.063    0.742    5.890    5.936    5.933
 122.00  486.592  144.422  507.572  489.451    0.691    6.132    6.171    6.168
 123.00  506.917  135.524  524.721  507.517    0.626    6.356    6.387    6.385
 124.00  525.053  131.788  541.340  525.096    0.548    6.556    6.579    6.577
 125.00  540.459  135.835  557.267  542.015    0.459    6.728    6.743    6.742
 126.00  552.628  148.938  572.346  558.109    0.359    6.865    6.875    6.874
 127.00  561.117  170.440  586.432  573.224    0.252    6.966    6.971    6.970
 128.00  565.576  198.505  599.400  587.224    0.146    7.026    7.028    7.027
 129.00  565.770  231.112  611.153  599.999    0.084    7.044    7.045    7.044
 130.00  561.598  266.512  621.628  611.477    0.149    7.019    7.020    7.020
 131.00  553.097  303.294  630.796  621.617    0.257    6.951    6.955    6.955
 132.00  540.436  340.332  638.668  630.421    0.366    6.841    6.851    6.851
 133.00  523.900  376.733  645.290  637.927    0.469    6.694    6.710    6.710
 134.00  503.866  411.806  650.742  644.210    0.563    6.511    6.535    6.535
 135.00  480.778  445.033  655.135  649.372    0.645    6.298    6.331    6.331
 136.00  455.108  476.055  658.598  653.543    0.716    6.058    6.101    6.101
 137.00  427.334  504.654  661.279  656.867    0.774    5.798    5.849    5.849
 138.00  397.914  530.733  663.335  659.502    0.819    5.520    5.580    5.580
 139.00  367.265  554.294  664.925  661.609    0.853    5.230    5.299    5.299
 140.00  335.749  575.419  666.209  663.349    0.877    4.931    5.008    5.008
 141.00  303.668  594.246  667.340  664.879    0.890    4.628    4.713    4.713
 142.00  271.262  610.951  668.464  666.348    0.896    4.322    4.414    4.414
 143.00  238.708  625.730  669.716  667.897    0.895    4.018    4.116    4.116
 144.00  206.133  638.785  671.221  669.654    0.889    3.716    3.821    3.820
 145.00  173.626  650.313  673.092  671.736    0.879    3.419    3.530    3.529
 146.00  141.270  660.493  675.432  674.251    0.866    3.128    3.245    3.243
 147.00  109.217  669.481  678.331  677.292    0.852    2.843    2.968    2.964
 148.00   77.926  677.400  681.868  680.943    0.836    2.566    2.699    2.693
 149.00   49.271  684.340  686.112  685.275    0.821    2.299    2.441    2.431
 150.00   32.678  690.347  691.120  690.349    0.806    2.041    2.195    2.179
 151.00   45.977  695.422  696.940  696.214    0.793    1.795    1.963    1.938
 152.00   75.779  699.513  703.606  702.904    0.781    1.564    1.748    1.709
 153.00  110.421  702.513  711.138  710.442    0.771    1.352    1.557    1.494
 154.00  147.553  704.251  719.542  718.833    0.763    1.168    1.395    1.296
 155.00  186.693  704.488  728.805  728.063    0.756    1.023    1.272    1.117
 156.00  227.767  702.912  738.893  738.097    0.751    0.935    1.199    0.969
 157.00  270.795  699.134  749.745  748.871    0.746    0.918    1.183    0.924
 158.00  315.787  692.682  761.269  760.291    0.741    0.976    1.226    1.039
 159.00  362.685  683.012  773.334  772.222    0.735    1.095    1.319    1.198
 160.00  411.326  669.508  785.767  784.488    0.727    1.257    1.452    1.375
 161.00  461.401  651.510  798.346  796.861    0.714    1.446    1.613    1.564
 162.00  512.415  628.345  810.794  809.059    0.696    1.649    1.790    1.759
 163.00  563.661  599.373  822.777  820.748    0.671    1.859    1.976    1.956
 164.00  614.196  564.067  833.911  831.535    0.637    2.067    2.163    2.149
 165.00  662.840  522.093  843.764  840.989    0.593    2.268    2.345    2.336
 166.00  708.212  473.419  851.875  848.648    0.539    2.457    2.515    2.509
 167.00  748.794  418.438  857.778  854.048    0.473    2.627    2.669    2.665
 168.00  783.039  358.096  861.036  856.754    0.398    2.774    2.802    2.799
 169.00  809.512  294.078  861.273  856.399    0.316    2.892    2.910    2.907
 170.00  827.046  229.189  858.215  852.718    0.230    2.980    2.988    2.986
 171.00  834.889  168.475  851.718  845.580    0.150    3.033    3.036    3.035
 172.00  832.802  122.673  841.789  835.005    0.098    3.051    3.053    3.051
 173.00  821.100  111.134  828.587  821.169    0.118    3.036    3.039    3.037
 174.00  800.611  137.958  812.411  804.385    0.178    2.990    2.995    2.994
 175.00  772.573  181.761  793.666  785.075    0.242    2.916    2.926    2.925
 176.00  738.487  227.833  772.833  763.733    0.298    2.819    2.835    2.833
 177.00  699.961  270.532  750.422  740.884    0.343    2.704    2.725    2.724
 178.00  658.569  307.784  726.941  717.044    0.377    2.575    2.602    2.601
 179.00  615.737  338.953  702.866  692.701    0.400    2.437    2.470    2.468
 180.00  572.679  364.096  678.622  668.284    0.413    2.294    2.331    2.330
 181.00  530.364  383.635  654.570  644.164    0.417    2.150    2.190    2.189
 182.00  489.514  398.185  631.011  620.642    0.414    2.006    2.049    2.048
 183.00  450.623  408.441  608.182  597.960    0.406    1.866    1.910    1.909
 184.00  413.989  415.115  586.266  576.300    0.394    1.730    1.774    1.774
 185.00  379.747  418.886  565.397  555.795    0.380    1.599    1.643    1.643
 186.00  347.905  420.378  545.670  536.537    0.364    1.474    1.518    1.518
 187.00  318.376  420.148  527.150  518.584    0.348    1.355    1.399    1.399
 188.00  291.001  418.678  509.875  501.965    0.332    1.242    1.285    1.285
 189.00  265.578  416.377  493.864  486.689    0.318    1.134    1.178    1.178
 190.00  241.876  413.587  479.122  472.747    0.306    1.032    1.077    1.076
 191.00  219.652  410.582  465.644  460.115    0.296    0.935    0.981    0.979
 192.00  198.658  407.581  453.417  448.759    0.288    0.844    0.892    0.887
 193.00  178.655  404.746  442.422  438.638    0.283    0.758    0.809    0.801
 194.00  159.415  402.193  432.634  429.700    0.280    0.677    0.732    0.719
 195.00  140.730  399.993  424.027  421.891    0.280    0.603    0.665    0.643
 196.00  122.419  398.176  416.570  415.150    0.282    0.537    0.607    0.574
 197.00  104.338  396.737  410.228  409.411    0.287    0.483    0.562    0.511
 198.00   86.407  395.637  404.963  404.604    0.293    0.445    0.533    0.459
 199.00   68.670  394.803  400.731  400.654    0.300    0.429    0.523    0.430
 200.00   51.483  394.137  397.485  397.481    0.309    0.437    0.535    0.444
 201.00   36.197  393.509  395.170  395.002    0.317    0.470    0.567    0.496
 202.00   27.442  392.770  393.728  393.124    0.326    0.525    0.618    0.566
 203.00   32.439  391.748  393.089  391.751    0.335    0.596    0.684    0.646
 204.00   47.849  390.256  393.178  390.778    0.342    0.681    0.762    0.734
 205.00   67.425  388.099  393.912  390.092    0.348    0.775    0.850    0.828
 206.00   88.833  385.086  395.199  389.576    0.352    0.876    0.944    0.927
 207.00  111.212  381.042  396.940  389.103    0.353    0.981    1.042    1.028
 208.00  134.073  375.829  399.027  388.543    0.350    1.088    1.143    1.130
 209.00  157.006  369.367  401.351  387.764    0.344    1.194    1.243    1.232
 210.00  179.591  361.661  403.796  386.637    0.333    1.298    1.340    1.330
 211.00  201.373  352.827  406.248  385.041    0.319    1.398    1.434    1.423
 212.00  221.862  343.117  408.597  382.874    0.303    1.489    1.520    1.509
 213.00  240.560  332.926  410.742  380.062    0.286    1.572    1.597    1.586
 214.00  256.988  322.783  412.592  376.571    0.271    1.642    1.664    1.651
 215.00  270.739  313.304  414.076  372.426    0.263    1.698    1.718    1.704
 216.00  281.523  305.104  415.143  367.730    0.266    1.740    1.760    1.742
 217.00  289.220  298.679  415.761  362.679    0.280    1.766    1.788    1.767
 218.00  293.923  294.276  415.920  357.587    0.306    1.777    1.803    1.777
 219.00  295.968  291.800  415.625  352.884    0.338    1.776    1.807    1.776
 220.00  295.932  290.795  414.895  349.081    0.373    1.764    1.803    1.764
 221.00  294.606  290.509  413.749  346.645    0.407    1.746    1.793    1.747
 222.00  292.920  290.018  412.205  345.816    0.437    1.726    1.781    1.727
 223.00  291.831  288.366  410.269  346.489    0.459    1.709    1.770    1.710
 224.00  292.170  284.684  407.932  348.255    0.473    1.699    1.764    1.699
 225.00  294.489  278.273  405.166  350.574    0.476    1.700    1.765    1.700
 226.00  298.949  268.652  401.926  352.928    0.468    1.711    1.774    1.712
 227.00  305.287  255.585  398.151  354.890    0.450    1.733    1.790    1.735
 228.00  312.883  239.085  393.773  356.133    0.422    1.763    1.812    1.765
 229.00  320.879  219.417  388.725  356.416    0.384    1.797    1.837    1.799
 230.00  328.339  197.086  382.948  355.576    0.340    1.830    1.862    1.832
 231.00  334.371  172.838  376.400  353.512    0.290    1.859    1.882    1.860
 232.00  338.235  147.667  369.065  350.182    0.239    1.879    1.894    1.879
 233.00  339.397  122.869  360.954  345.592    0.192    1.887    1.897    1.887
 234.00  337.557  100.180  352.108  339.799    0.153    1.882    1.888    1.882
 235.00  332.642   82.001  342.600  332.895    0.132    1.862    1.867    1.864
 236.00  324.785   71.312  332.521  325.008    0.134    1.829    1.833    1.832
 237.00  314.280   70.013  321.984  316.284    0.152    1.781    1.788    1.787
 238.00  301.536   76.584  311.110  306.884    0.177    1.723    1.732    1.732
 239.00  287.024   87.346  300.020  296.972    0.201    1.654    1.667    1.667
 240.00  271.233   99.285  288.834  286.707    0.221    1.579    1.594    1.594
 241.00  254.638  110.706  277.662  276.237    0.237    1.498    1.516    1.516
 242.00  237.666  120.790  266.600  265.696    0.247    1.413    1.435    1.434
 243.00  220.687  129.208  255.729  255.197    0.253    1.328    1.352    1.350
 244.00  204.003  135.886  245.117  244.836    0.254    1.242    1.268    1.266
 245.00  187.850  140.892  234.815  234.693    0.252    1.158    1.185    1.183
 246.00  172.399  144.364  224.861  224.826    0.246    1.076    1.104    1.102
 247.00  157.769  146.476  215.282  215.280    0.238    0.998    1.026    1.023
 248.00  144.030  147.410  206.093  206.086    0.228    0.923    0.951    0.948
 249.00  131.216  147.345  197.302  197.265    0.217    0.852    0.880    0.877
 250.00  119.330  146.448  188.909  188.826    0.206    0.786    0.813    0.809
 251.00  108.355  144.872  180.911  180.773    0.193    0.724    0.749    0.746
 252.00   98.259  142.749  173.298  173.102    0.181    0.666    0.690    0.687
 253.00   88.998  140.197  166.060  165.806    0.169    0.613    0.635    0.632
 254.00   80.524  137.313  159.182  158.874    0.158    0.563    0.585    0.581
 255.00   72.783  134.183  152.651  152.294    0.146    0.517    0.537    0.534
 256.00   65.723  130.876  146.452  146.052    0.136    0.475    0.494    0.491
 257.00   59.293  127.451  140.568  140.132    0.125    0.436    0.454    0.451
 258.00   53.441  123.954  134.984  134.519    0.116    0.401    0.417    0.414
 259.00   48.120  120.426  129.684  129.197    0.107    0.368    0.383    0.380
 260.00   43.286  116.898  124.654  124.150    0.099    0.338    0.352    0.349
 261.00   38.897  113.394  119.880  119.365    0.091    0.311    0.324    0.321
 262.00   34.917  109.934  115.346  114.825    0.084    0.286    0.298    0.295
 263.00   31.309  106.535  111.041  110.518    0.077    0.263    0.274    0.271
 264.00   28.044  103.209  106.951  106.430    0.071    0.243    0.253    0.250
 265.00   25.093   99.963  103.064  102.548    0.066    0.224    0.233    0.230
 266.00   22.429   96.805   99.370   98.861    0.061    0.206    0.215    0.212
 267.00   20.032   93.740   95.857   95.358    0.056    0.191    0.199    0.196
 268.00   17.879   90.771   92.515   92.027    0.052    0.177    0.184    0.181
 269.00   15.954   87.899   89.335   88.860    0.048    0.164    0.171    0.168
 270.00   14.241   85.125   86.308   85.847    0.044    0.152    0.159    0.156
 271.00   12.727   82.449   83.426   82.979    0.041    0.142    0.148    0.145
 272.00   11.399   79.870   80.679   80.247    0.037    0.133    0.138    0.135
 273.00   10.247   77.386   78.062   77.645    0.035    0.124    0.129    0.127
 274.00    9.262   74.997   75.567   75.165    0.032    0.117    0.121    0.119
 275.00    8.436   72.699   73.187   72.800    0.030    0.110    0.114    0.112
 276.00    7.758   70.490   70.916   70.544    0.027    0.104    0.108    0.106
 277.00    7.219   68.368   68.748   68.391    0.025    0.099    0.102    0.100
 278.00    6.806   66.329   66.678   66.336    0.024    0.094    0.097    0.095
 279.00    6.505   64.372   64.700   64.373    0.022    0.090    0.093    0.091
 280.00    6.299   62.494   62.810   62.496    0.020    0.087    0.089    0.087
 281.00    6.172   60.690   61.003   60.703    0.019    0.084    0.086    0.084
 282.00    6.107   58.960   59.275   58.988    0.018    0.081    0.083    0.081
 283.00    6.089   57.299   57.622   57.346    0.016    0.078    0.080    0.079
 284.00    6.105   55.705   56.039   55.776    0.015    0.076    0.078    0.077
 285.00    6.145   54.176   54.523   54.271    0.014    0.075    0.076    0.075
 286.00    6.198   52.708   53.071   52.830    0.013    0.073    0.074    0.073
 287.00    6.259   51.299   51.679   51.449    0.012    0.072    0.073    0.072
 288.00    6.323   49.947   50.345   50.125    0.011    0.070    0.071    0.070
 289.00    6.385   48.649   49.066   48.856    0.011    0.069    0.070    0.069
 290.00    6.444   47.402   47.838   47.637    0.010    0.068    0.069    0.068
 291.00    6.497   46.206   46.660   46.468    0.009    0.067    0.068    0.067
 292.00    6.543   45.056   45.529   45.345    0.009    0.067    0.067    0.067
 293.00    6.582   43.952   44.442   44.266    0.008    0.066    0.066    0.066
 294.00    6.613   42.891   43.398   43.229    0.008    0.065    0.066    0.065
 295.00    6.636   41.871   42.394   42.233    0.007    0.065    0.065    0.065
 296.00    6.651   40.891   41.428   41.275    0.007    0.064    0.064    0.064
 297.00    6.660   39.948   40.500   40.352    0.007    0.063    0.064    0.063
 298.00    6.661   39.042   39.606   39.465    0.006    0.063    0.063    0.063
 299.00    6.655   38.170   38.746   38.611    0.006    0.062    0.063    0.062
 300.00    6.643   37.330   37.917   37.788    0.005    0.062    0.062    0.062
