Underground Existing
Post-Project, Mile 7.65 to Mile 7.88
UND_E.FLD

 DIST    B Horz   B Vert   B PROD    B MAX   E Horz   E Vert   E PROD    E MAX
 (Ft)     (mG)     (mG)     (mG)      (mG)   (kV/m)   (kV/m)   (kV/m)   (V/m)
 ----    ------   ------   ------    -----   ------   ------   ------   ------
-150.00   10.736    1.685   10.867   10.736    0.012    0.262    0.262    0.262
-149.00   10.876    1.720   11.012   10.877    0.013    0.266    0.266    0.266
-148.00   11.020    1.756   11.159   11.021    0.013    0.270    0.271    0.271
-147.00   11.166    1.793   11.309   11.167    0.013    0.275    0.275    0.275
-146.00   11.314    1.832   11.462   11.316    0.013    0.279    0.279    0.279
-145.00   11.466    1.872   11.618   11.469    0.014    0.284    0.284    0.284
-144.00   11.621    1.914   11.777   11.624    0.014    0.288    0.289    0.289
-143.00   11.778    1.958   11.940   11.783    0.014    0.293    0.293    0.293
-142.00   11.939    2.004   12.106   11.945    0.015    0.298    0.298    0.298
-141.00   12.103    2.052   12.276   12.110    0.015    0.303    0.303    0.303
-140.00   12.270    2.101   12.449   12.278    0.015    0.308    0.308    0.308
-139.00   12.441    2.153   12.626   12.451    0.016    0.313    0.313    0.313
-138.00   12.615    2.207   12.806   12.626    0.016    0.318    0.318    0.318
-137.00   12.792    2.263   12.991   12.806    0.016    0.323    0.324    0.324
-136.00   12.973    2.322   13.179   12.989    0.017    0.329    0.329    0.329
-135.00   13.158    2.383   13.372   13.176    0.017    0.335    0.335    0.335
-134.00   13.346    2.446   13.568   13.367    0.017    0.340    0.341    0.341
-133.00   13.538    2.512   13.770   13.563    0.018    0.346    0.347    0.347
-132.00   13.735    2.581   13.975   13.762    0.018    0.352    0.353    0.353
-131.00   13.935    2.652   14.185   13.966    0.019    0.358    0.359    0.359
-130.00   14.140    2.727   14.400   14.175    0.019    0.365    0.365    0.365
-129.00   14.349    2.805   14.620   14.388    0.020    0.371    0.371    0.371
-128.00   14.562    2.885   14.845   14.606    0.020    0.378    0.378    0.378
-127.00   14.780    2.970   15.075   14.829    0.020    0.384    0.385    0.385
-126.00   15.003    3.057   15.311   15.057    0.021    0.391    0.392    0.392
-125.00   15.230    3.148   15.552   15.291    0.021    0.398    0.399    0.399
-124.00   15.462    3.243   15.799   15.529    0.022    0.405    0.406    0.406
-123.00   15.699    3.342   16.051   15.774    0.022    0.413    0.413    0.413
-122.00   15.942    3.445   16.310   16.024    0.023    0.420    0.421    0.421
-121.00   16.190    3.553   16.575   16.280    0.024    0.428    0.429    0.429
-120.00   16.443    3.664   16.846   16.542    0.024    0.436    0.437    0.437
-119.00   16.702    3.781   17.124   16.810    0.025    0.444    0.445    0.445
-118.00   16.966    3.902   17.409   17.085    0.025    0.452    0.453    0.453
-117.00   17.237    4.028   17.701   17.366    0.026    0.461    0.462    0.462
-116.00   17.514    4.160   18.001   17.655    0.027    0.470    0.470    0.470
-115.00   17.797    4.296   18.308   17.951    0.027    0.478    0.479    0.479
-114.00   18.086    4.439   18.623   18.254    0.028    0.488    0.488    0.488
-113.00   18.382    4.588   18.946   18.564    0.029    0.497    0.498    0.498
-112.00   18.685    4.743   19.278   18.883    0.029    0.507    0.507    0.507
-111.00   18.995    4.904   19.618   19.210    0.030    0.516    0.517    0.517
-110.00   19.312    5.072   19.967   19.545    0.031    0.526    0.527    0.527
-109.00   19.636    5.247   20.325   19.889    0.032    0.537    0.538    0.538
-108.00   19.968    5.430   20.694   20.242    0.032    0.547    0.548    0.548
-107.00   20.308    5.620   21.072   20.604    0.033    0.558    0.559    0.559
-106.00   20.656    5.819   21.460   20.976    0.034    0.569    0.570    0.570
-105.00   21.013    6.026   21.860   21.358    0.035    0.581    0.582    0.582
-104.00   21.377    6.242   22.270   21.750    0.036    0.592    0.593    0.593
-103.00   21.751    6.467   22.692   22.153    0.037    0.604    0.605    0.605
-102.00   22.133    6.702   23.126   22.567    0.038    0.616    0.618    0.618
-101.00   22.525    6.948   23.572   22.993    0.039    0.629    0.630    0.630
-100.00   22.926    7.204   24.031   23.430    0.040    0.642    0.643    0.643
 -99.00   23.337    7.471   24.504   23.880    0.041    0.655    0.656    0.656
 -98.00   23.759    7.750   24.991   24.343    0.042    0.669    0.670    0.670
 -97.00   24.190    8.041   25.492   24.819    0.043    0.683    0.684    0.684
 -96.00   24.632    8.345   26.008   25.309    0.044    0.697    0.698    0.698
 -95.00   25.086    8.663   26.539   25.813    0.045    0.712    0.713    0.713
 -94.00   25.550    8.995   27.087   26.333    0.047    0.727    0.728    0.728
 -93.00   26.026    9.342   27.652   26.867    0.048    0.742    0.743    0.743
 -92.00   26.514    9.705   28.234   27.418    0.049    0.758    0.759    0.759
 -91.00   27.014   10.085   28.835   27.986    0.051    0.774    0.776    0.775
 -90.00   27.527   10.481   29.455   28.571    0.052    0.791    0.792    0.792
 -89.00   28.052   10.896   30.094   29.174    0.053    0.808    0.809    0.809
 -88.00   28.591   11.331   30.755   29.796    0.055    0.825    0.827    0.827
 -87.00   29.144   11.785   31.437   30.438    0.056    0.843    0.845    0.845
 -86.00   29.710   12.261   32.141   31.100    0.058    0.861    0.863    0.863
 -85.00   30.291   12.759   32.869   31.783    0.060    0.880    0.882    0.882
 -84.00   30.887   13.281   33.621   32.489    0.062    0.900    0.902    0.901
 -83.00   31.498   13.828   34.399   33.217    0.063    0.919    0.922    0.921
 -82.00   32.124   14.400   35.204   33.970    0.065    0.940    0.942    0.942
 -81.00   32.766   15.001   36.037   34.748    0.067    0.961    0.963    0.963
 -80.00   33.424   15.630   36.899   35.552    0.069    0.982    0.984    0.984
 -79.00   34.099   16.291   37.791   36.384    0.071    1.004    1.007    1.006
 -78.00   34.791   16.983   38.715   37.244    0.074    1.027    1.029    1.029
 -77.00   35.501   17.710   39.673   38.134    0.076    1.050    1.052    1.052
 -76.00   36.228   18.473   40.666   39.055    0.078    1.073    1.076    1.076
 -75.00   36.973   19.274   41.695   40.009    0.081    1.098    1.101    1.100
 -74.00   37.737   20.116   42.763   40.997    0.084    1.122    1.126    1.125
 -73.00   38.519   21.000   43.872   42.021    0.086    1.148    1.151    1.151
 -72.00   39.321   21.929   45.022   43.082    0.089    1.174    1.178    1.177
 -71.00   40.142   22.905   46.217   44.182    0.093    1.201    1.204    1.204
 -70.00   40.982   23.932   47.458   45.323    0.096    1.228    1.232    1.231
 -69.00   41.843   25.012   48.748   46.508    0.100    1.257    1.261    1.259
 -68.00   42.723   26.148   50.090   47.737    0.104    1.285    1.290    1.288
 -67.00   43.624   27.343   51.485   49.013    0.108    1.315    1.319    1.318
 -66.00   44.545   28.602   52.937   50.339    0.112    1.345    1.350    1.348
 -65.00   45.486   29.927   54.449   51.717    0.117    1.376    1.381    1.380
 -64.00   46.448   31.323   56.023   53.150    0.122    1.408    1.414    1.412
 -63.00   47.430   32.794   57.663   54.639    0.128    1.441    1.447    1.444
 -62.00   48.432   34.344   59.373   56.189    0.134    1.475    1.481    1.478
 -61.00   49.453   35.977   61.155   57.802    0.140    1.509    1.516    1.513
 -60.00   50.494   37.700   63.015   59.481    0.147    1.544    1.551    1.548
 -59.00   51.553   39.516   64.956   61.230    0.155    1.581    1.588    1.585
 -58.00   52.631   41.432   66.982   63.053    0.164    1.618    1.626    1.622
 -57.00   53.726   43.453   69.099   64.952    0.173    1.657    1.666    1.661
 -56.00   54.837   45.586   71.310   66.933    0.184    1.696    1.706    1.701
 -55.00   55.963   47.837   73.622   68.999    0.195    1.737    1.748    1.742
 -54.00   57.103   50.213   76.040   71.154    0.208    1.780    1.792    1.785
 -53.00   58.255   52.721   78.569   73.404    0.222    1.824    1.838    1.829
 -52.00   59.417   55.369   81.217   75.754    0.238    1.870    1.885    1.875
 -51.00   60.588   58.164   83.988   78.208    0.255    1.918    1.935    1.923
 -50.00   61.765   61.115   86.890   80.772    0.275    1.968    1.987    1.974
 -49.00   62.946   64.229   89.931   83.452    0.296    2.021    2.043    2.028
 -48.00   64.129   67.516   93.118   86.254    0.320    2.077    2.102    2.085
 -47.00   65.310   70.985   96.459   89.183    0.346    2.137    2.165    2.145
 -46.00   66.488   74.644   99.962   92.247    0.375    2.201    2.233    2.210
 -45.00   67.659   78.502  103.636   95.451    0.408    2.271    2.307    2.281
 -44.00   68.822   82.569  107.490   98.804    0.443    2.346    2.387    2.357
 -43.00   69.975   86.852  111.533  102.311    0.483    2.428    2.475    2.441
 -42.00   71.117   91.360  115.776  105.981    0.527    2.518    2.572    2.534
 -41.00   72.249   96.099  120.229  109.821    0.576    2.618    2.680    2.637
 -40.00   73.374  101.077  124.901  113.837    0.629    2.729    2.801    2.752
 -39.00   74.497  106.297  129.804  118.037    0.688    2.853    2.935    2.881
 -38.00   75.628  111.763  134.947  122.428    0.753    2.993    3.086    3.027
 -37.00   76.781  117.475  140.342  127.017    0.824    3.151    3.257    3.191
 -36.00   77.979  123.429  145.998  131.810    0.902    3.328    3.448    3.378
 -35.00   79.250  129.619  151.926  136.813    0.987    3.529    3.665    3.589
 -34.00   80.638  136.031  158.136  142.029    1.079    3.756    3.908    3.828
 -33.00   82.195  142.649  164.635  147.462    1.178    4.013    4.182    4.098
 -32.00   83.994  149.445  171.431  153.114    1.285    4.301    4.489    4.401
 -31.00   86.121  156.385  178.530  158.983    1.399    4.625    4.833    4.742
 -30.00   88.683  163.424  185.936  165.066    1.520    4.988    5.215    5.123
 -29.00   91.804  170.505  193.649  171.357    1.648    5.393    5.639    5.546
 -28.00   95.618  177.558  201.667  177.844    1.780    5.842    6.107    6.013
 -27.00  100.270  184.498  209.985  184.511    1.915    6.337    6.620    6.526
 -26.00  105.898  191.226  218.591  191.339    2.051    6.880    7.180    7.086
 -25.00  112.628  197.626  227.467  198.298    2.185    7.472    7.785    7.693
 -24.00  120.558  203.571  236.591  205.353    2.313    8.111    8.435    8.344
 -23.00  129.745  208.921  245.931  212.459    2.431    8.796    9.126    9.037
 -22.00  140.197  213.534  255.445  219.563    2.534    9.523    9.854    9.766
 -21.00  151.861  217.272  265.083  226.601    2.617   10.285   10.612   10.526
 -20.00  164.613  220.019  274.783  233.496    2.673   11.074   11.391   11.306
 -19.00  178.257  221.695  284.472  240.164    2.696   11.878   12.180   12.095
 -18.00  192.516  222.290  294.066  246.509    2.683   12.682   12.963   12.878
 -17.00  207.031  221.885  303.471  252.428    2.632   13.470   13.724   13.638
 -16.00  221.367  220.692  312.583  257.812    2.544   14.219   14.445   14.356
 -15.00  235.022  219.074  321.293  262.554    2.429   14.908   15.105   15.011
 -14.00  247.449  217.559  329.489  266.555    2.306   15.512   15.683   15.581
 -13.00  258.081  216.807  337.063  269.736    2.207   16.007   16.159   16.047
 -12.00  266.379  217.531  343.915  272.052    2.176   16.372   16.516   16.388
 -11.00  271.877  220.353  349.960  273.517    2.254   16.587   16.740   16.590
 -10.00  274.233  225.643  355.132  274.247    2.461   16.643   16.824   16.644
  -9.00  273.293  233.389  359.388  274.522    2.780   16.538   16.770   16.547
  -8.00  269.131  243.159  362.709  274.866    3.174   16.280   16.587   16.308
  -7.00  262.100  254.172  365.103  276.000    3.602   15.895   16.297   15.943
  -6.00  252.851  265.437  366.593  278.429    4.024   15.416   15.933   15.482
  -5.00  242.347  275.896  367.221  282.015    4.409   14.897   15.535   14.968
  -4.00  231.830  284.548  367.032  286.216    4.730   14.396   15.153   14.456
  -3.00  222.728  290.519  366.073  290.523    4.967   13.983   14.839   14.016
  -2.00  216.464  293.117  364.382  294.582    5.106   13.718   14.637   13.725
  -1.00  214.149  291.847  361.987  298.160    5.138   13.648   14.583   13.649
   0.00  216.267  286.420  358.898  301.089    5.057   13.791   14.689   13.814
   1.00  222.515  276.759  355.117  303.239    4.863   14.133   14.946   14.193
   2.00  231.904  262.989  350.632  304.506    4.562   14.629   15.324   14.722
   3.00  243.062  245.441  345.428  304.804    4.163   15.221   15.780   15.327
   4.00  254.542  224.642  339.494  304.068    3.678   15.841   16.262   15.941
   5.00  265.048  201.302  332.826  302.257    3.124   16.429   16.723   16.507
   6.00  273.541  176.309  325.438  299.358    2.523   16.934   17.121   16.986
   7.00  279.289  150.726  317.365  295.387    1.896   17.320   17.423   17.346
   8.00  281.857  125.815  308.663  290.391    1.271   17.562   17.608   17.570
   9.00  281.091  103.124  299.411  284.448    0.692   17.651   17.664   17.651
  10.00  277.075   84.612  289.706  277.660    0.367   17.589   17.593   17.591
  11.00  270.080   72.569  279.660  270.150    0.672   17.388   17.401   17.400
  12.00  260.515   68.580  269.390  262.052    1.119   17.067   17.103   17.094
  13.00  248.867   71.798  259.017  253.507    1.533   16.651   16.722   16.695
  14.00  235.657   79.336  248.653  244.654    1.889   16.170   16.280   16.228
  15.00  221.397   88.431  238.404  235.624    2.183   15.651   15.802   15.719
  16.00  206.561   97.375  228.362  226.538    2.415   15.123   15.315   15.195
  17.00  191.564  105.311  218.603  217.501    2.589   14.614   14.842   14.682
  18.00  176.754  111.882  209.188  208.603    2.709   14.147   14.404   14.205
  19.00  162.408  117.000  200.164  199.917    2.781   13.741   14.020   13.786
  20.00  148.736  120.720  191.561  191.500    2.810   13.410   13.701   13.439
  21.00  135.884  123.169  183.399  183.398    2.800   13.161   13.455   13.177
  22.00  123.947  124.507  175.684  175.641    2.757   12.995   13.284   13.002
  23.00  112.975  124.902  168.416  168.250    2.685   12.909   13.185   12.910
  24.00  102.978  124.518  161.584  161.233    2.587   12.892   13.149   12.892
  25.00   93.942  123.506  155.173  154.595    2.469   12.933   13.167   12.934
  26.00   85.825  122.000  149.164  148.333    2.333   13.017   13.224   13.019
  27.00   78.571  120.119  143.533  142.436    2.184   13.128   13.309   13.132
  28.00   72.112  117.961  138.257  136.894    2.027   13.253   13.407   13.258
  29.00   66.374  115.610  133.308  131.689    1.864   13.378   13.507   13.383
  30.00   61.277  113.134  128.663  126.806    1.701   13.492   13.599   13.496
  31.00   56.743  110.586  124.294  122.224    1.542   13.587   13.674   13.589
  32.00   52.696  108.009  120.178  117.923    1.391   13.655   13.726   13.656
  33.00   49.068  105.434  116.293  113.884    1.253   13.692   13.749   13.692
  34.00   45.794  102.885  112.617  110.085    1.131   13.695   13.741   13.695
  35.00   42.820  100.378  109.130  106.508    1.030   13.661   13.700   13.662
  36.00   40.099   97.924  105.816  103.133    0.951   13.591   13.624   13.593
  37.00   37.592   95.528  102.658   99.942    0.897   13.486   13.516   13.490
  38.00   35.268   93.193   99.643   96.919    0.866   13.347   13.375   13.354
  39.00   33.102   90.920   96.758   94.048    0.855   13.177   13.205   13.187
  40.00   31.077   88.707   93.993   91.315    0.858   12.978   13.006   12.992
  41.00   29.177   86.552   91.338   88.709    0.872   12.754   12.783   12.771
  42.00   27.394   84.453   88.784   86.217    0.892   12.507   12.538   12.528
  43.00   25.721   82.405   86.326   83.830    0.913   12.240   12.274   12.266
  44.00   24.153   80.407   83.956   81.540    0.933   11.958   11.994   11.987
  45.00   22.688   78.455   81.669   79.338    0.951   11.663   11.701   11.696
  46.00   21.324   76.546   79.461   77.218    0.966   11.357   11.398   11.393
  47.00   20.061   74.679   77.327   75.174    0.975   11.044   11.087   11.082
  48.00   18.899   72.852   75.263   73.202    0.981   10.725   10.770   10.766
  49.00   17.837   71.063   73.267   71.297    0.982   10.404   10.450   10.447
  50.00   16.875   69.311   71.336   69.456    0.979   10.081   10.129   10.126
  51.00   16.012   67.596   69.466   67.674    0.972    9.760    9.808    9.806
  52.00   15.247   65.916   67.657   65.950    0.961    9.440    9.489    9.487
  53.00   14.576   64.272   65.904   64.280    0.948    9.125    9.174    9.172
  54.00   13.997   62.663   64.207   62.663    0.931    8.813    8.863    8.861
  55.00   13.505   61.088   62.563   61.095    0.913    8.508    8.557    8.555
  56.00   13.093   59.548   60.971   59.576    0.892    8.209    8.257    8.256
  57.00   12.757   58.043   59.428   58.104    0.870    7.917    7.965    7.964
  58.00   12.488   56.572   57.934   56.676    0.847    7.632    7.679    7.678
  59.00   12.279   55.136   56.487   55.292    0.823    7.356    7.402    7.401
  60.00   12.123   53.734   55.084   53.950    0.798    7.087    7.132    7.131
  61.00   12.011   52.366   53.726   52.648    0.773    6.827    6.871    6.870
  62.00   11.937   51.032   52.409   51.385    0.747    6.575    6.618    6.617
  63.00   11.893   49.731   51.134   50.161    0.722    6.332    6.373    6.373
  64.00   11.874   48.464   49.898   48.973    0.697    6.097    6.137    6.137
  65.00   11.874   47.230   48.700   47.821    0.672    5.871    5.909    5.909
  66.00   11.888   46.029   47.539   46.703    0.647    5.653    5.690    5.689
  67.00   11.912   44.859   46.414   45.619    0.623    5.443    5.479    5.478
  68.00   11.943   43.722   45.324   44.567    0.599    5.241    5.275    5.275
  69.00   11.978   42.615   44.267   43.547    0.576    5.047    5.080    5.079
  70.00   12.013   41.540   43.242   42.557    0.553    4.860    4.892    4.891
  71.00   12.049   40.494   42.249   41.596    0.531    4.681    4.711    4.711
  72.00   12.082   39.478   41.285   40.663    0.510    4.509    4.538    4.538
  73.00   12.111   38.491   40.351   39.758    0.490    4.344    4.371    4.371
  74.00   12.137   37.532   39.445   38.880    0.470    4.185    4.212    4.211
  75.00   12.158   36.600   38.567   38.027    0.451    4.033    4.058    4.058
  76.00   12.173   35.696   37.714   37.199    0.432    3.887    3.911    3.911
  77.00   12.183   34.817   36.887   36.395    0.415    3.748    3.770    3.770
  78.00   12.187   33.965   36.085   35.615    0.398    3.613    3.635    3.635
  79.00   12.185   33.137   35.306   34.857    0.381    3.485    3.506    3.505
  80.00   12.177   32.333   34.550   34.121    0.366    3.361    3.381    3.381
  81.00   12.163   31.553   33.816   33.405    0.351    3.243    3.262    3.262
  82.00   12.144   30.796   33.103   32.711    0.336    3.130    3.148    3.148
  83.00   12.119   30.061   32.411   32.035    0.323    3.021    3.038    3.038
  84.00   12.089   29.347   31.739   31.379    0.309    2.917    2.933    2.933
  85.00   12.054   28.654   31.086   30.741    0.297    2.816    2.832    2.832
  86.00   12.014   27.982   30.452   30.122    0.285    2.720    2.735    2.735
  87.00   11.969   27.330   29.836   29.519    0.273    2.628    2.642    2.642
  88.00   11.921   26.696   29.237   28.933    0.262    2.540    2.553    2.553
  89.00   11.868   26.081   28.654   28.363    0.252    2.455    2.468    2.468
  90.00   11.811   25.484   28.088   27.808    0.241    2.374    2.386    2.386
  91.00   11.751   24.904   27.538   27.269    0.232    2.296    2.307    2.307
  92.00   11.688   24.342   27.002   26.744    0.223    2.221    2.232    2.232
  93.00   11.622   23.795   26.481   26.233    0.214    2.149    2.159    2.159
  94.00   11.552   23.264   25.975   25.736    0.205    2.079    2.089    2.089
  95.00   11.481   22.749   25.481   25.252    0.197    2.013    2.023    2.022
  96.00   11.407   22.248   25.002   24.781    0.190    1.949    1.958    1.958
  97.00   11.331   21.761   24.534   24.322    0.182    1.888    1.896    1.896
  98.00   11.253   21.288   24.080   23.876    0.175    1.829    1.837    1.837
  99.00   11.173   20.829   23.637   23.440    0.168    1.772    1.780    1.780
 100.00   11.092   20.383   23.205   23.016    0.162    1.717    1.725    1.725
 101.00   11.009   19.949   22.785   22.603    0.156    1.665    1.672    1.672
 102.00   10.925   19.527   22.376   22.200    0.150    1.614    1.621    1.621
 103.00   10.840   19.117   21.977   21.808    0.144    1.566    1.572    1.572
 104.00   10.754   18.719   21.588   21.425    0.139    1.519    1.525    1.525
 105.00   10.667   18.331   21.209   21.052    0.134    1.474    1.480    1.480
 106.00   10.580   17.954   20.840   20.688    0.129    1.431    1.436    1.436
 107.00   10.492   17.588   20.479   20.333    0.124    1.389    1.394    1.394
 108.00   10.403   17.231   20.128   19.987    0.120    1.349    1.354    1.354
 109.00   10.314   16.884   19.785   19.649    0.115    1.310    1.315    1.315
 110.00   10.225   16.546   19.451   19.319    0.111    1.272    1.277    1.277
 111.00   10.136   16.218   19.125   18.997    0.107    1.236    1.241    1.241
 112.00   10.046   15.898   18.806   18.683    0.103    1.202    1.206    1.206
 113.00    9.957   15.587   18.495   18.377    0.100    1.168    1.172    1.172
 114.00    9.868   15.283   18.192   18.077    0.096    1.136    1.140    1.140
 115.00    9.778   14.988   17.896   17.785    0.093    1.104    1.108    1.108
 116.00    9.689   14.701   17.607   17.499    0.090    1.074    1.078    1.078
 117.00    9.600   14.421   17.324   17.220    0.086    1.045    1.049    1.049
 118.00    9.512   14.148   17.048   16.947    0.084    1.017    1.021    1.021
 119.00    9.424   13.882   16.778   16.681    0.081    0.990    0.993    0.993
 120.00    9.336   13.623   16.515   16.421    0.078    0.964    0.967    0.967
 121.00    9.249   13.370   16.257   16.166    0.075    0.938    0.941    0.941
 122.00    9.162   13.124   16.006   15.917    0.073    0.914    0.917    0.917
 123.00    9.076   12.884   15.760   15.674    0.070    0.890    0.893    0.893
 124.00    8.990   12.650   15.519   15.436    0.068    0.867    0.870    0.870
 125.00    8.904   12.422   15.284   15.204    0.066    0.845    0.848    0.848
 126.00    8.820   12.200   15.054   14.976    0.064    0.824    0.826    0.826
 127.00    8.736   11.983   14.829   14.753    0.062    0.803    0.805    0.805
 128.00    8.652   11.771   14.609   14.536    0.060    0.783    0.785    0.785
 129.00    8.570   11.564   14.393   14.322    0.058    0.764    0.766    0.766
 130.00    8.488   11.363   14.183   14.114    0.056    0.745    0.747    0.747
 131.00    8.406   11.166   13.976   13.910    0.054    0.727    0.729    0.729
 132.00    8.325   10.974   13.774   13.710    0.053    0.709    0.711    0.711
 133.00    8.245   10.786   13.577   13.514    0.051    0.692    0.694    0.694
 134.00    8.166   10.603   13.383   13.322    0.049    0.675    0.677    0.677
 135.00    8.088   10.424   13.194   13.134    0.048    0.659    0.661    0.661
 136.00    8.010   10.249   13.008   12.951    0.046    0.644    0.645    0.645
 137.00    7.933   10.079   12.826   12.770    0.045    0.628    0.630    0.630
 138.00    7.857    9.912   12.648   12.594    0.044    0.614    0.615    0.615
 139.00    7.781    9.749   12.474   12.421    0.042    0.600    0.601    0.601
 140.00    7.707    9.590   12.303   12.252    0.041    0.586    0.587    0.587
 141.00    7.633    9.435   12.135   12.086    0.040    0.572    0.574    0.574
 142.00    7.559    9.283   11.971   11.923    0.039    0.559    0.561    0.561
 143.00    7.487    9.134   11.810   11.763    0.038    0.547    0.548    0.548
 144.00    7.415    8.989   11.653   11.607    0.036    0.535    0.536    0.536
 145.00    7.344    8.846   11.498   11.453    0.035    0.523    0.524    0.524
 146.00    7.274    8.708   11.346   11.303    0.034    0.511    0.512    0.512
 147.00    7.205    8.572   11.197   11.155    0.033    0.500    0.501    0.501
 148.00    7.136    8.439   11.052   11.010    0.032    0.489    0.490    0.490
 149.00    7.068    8.308   10.908   10.869    0.032    0.479    0.480    0.480
 150.00    7.001    8.181   10.768   10.729    0.031    0.468    0.469    0.469
