Envsmpl2
Enviro Comparison 2
ENVSMPL2.FLD

 DIST    B Horz   B Vert   B PROD    B MAX   E Horz   E Vert   E PROD    E MAX
 (Ft)     (mG)     (mG)     (mG)      (mG)   (kV/m)   (kV/m)   (kV/m)   (V/m)
 ----    ------   ------   ------    -----   ------   ------   ------   ------
-235.00    6.111   15.488   16.650   16.198    0.012    0.169    0.169    0.169
-234.00    6.211   15.675   16.861   16.409    0.013    0.172    0.173    0.173
-233.00    6.315   15.866   17.076   16.625    0.013    0.176    0.177    0.177
-232.00    6.421   16.060   17.296   16.845    0.013    0.180    0.180    0.180
-231.00    6.531   16.258   17.521   17.071    0.014    0.184    0.185    0.185
-230.00    6.645   16.461   17.751   17.301    0.014    0.188    0.189    0.189
-229.00    6.763   16.667   17.986   17.537    0.015    0.193    0.193    0.193
-228.00    6.884   16.877   18.227   17.778    0.015    0.197    0.198    0.198
-227.00    7.010   17.092   18.473   18.025    0.016    0.202    0.202    0.202
-226.00    7.140   17.310   18.725   18.277    0.016    0.206    0.207    0.207
-225.00    7.275   17.533   18.983   18.536    0.017    0.211    0.212    0.212
-224.00    7.414   17.761   19.247   18.800    0.018    0.217    0.217    0.217
-223.00    7.559   17.994   19.517   19.071    0.018    0.222    0.223    0.223
-222.00    7.708   18.231   19.793   19.349    0.019    0.227    0.228    0.228
-221.00    7.863   18.473   20.077   19.633    0.019    0.233    0.234    0.234
-220.00    8.024   18.720   20.367   19.925    0.020    0.239    0.240    0.240
-219.00    8.191   18.972   20.664   20.224    0.021    0.245    0.246    0.246
-218.00    8.364   19.229   20.969   20.530    0.022    0.251    0.252    0.252
-217.00    8.544   19.492   21.282   20.844    0.022    0.258    0.259    0.259
-216.00    8.731   19.760   21.603   21.166    0.023    0.265    0.266    0.266
-215.00    8.925   20.034   21.932   21.497    0.024    0.272    0.273    0.273
-214.00    9.126   20.313   22.269   21.836    0.025    0.279    0.280    0.280
-213.00    9.336   20.599   22.615   22.184    0.026    0.287    0.288    0.288
-212.00    9.554   20.890   22.971   22.542    0.027    0.294    0.296    0.296
-211.00    9.781   21.188   23.336   22.909    0.028    0.303    0.304    0.304
-210.00   10.017   21.492   23.711   23.286    0.029    0.311    0.313    0.312
-209.00   10.262   21.802   24.096   23.674    0.030    0.320    0.321    0.321
-208.00   10.518   22.119   24.492   24.073    0.031    0.329    0.331    0.331
-207.00   10.785   22.443   24.899   24.482    0.033    0.339    0.340    0.340
-206.00   11.063   22.773   25.318   24.904    0.034    0.349    0.350    0.350
-205.00   11.353   23.110   25.748   25.337    0.035    0.359    0.361    0.361
-204.00   11.655   23.455   26.191   25.783    0.037    0.370    0.372    0.372
-203.00   11.971   23.807   26.647   26.242    0.038    0.381    0.383    0.383
-202.00   12.301   24.166   27.116   26.715    0.040    0.393    0.395    0.395
-201.00   12.645   24.532   27.599   27.202    0.041    0.405    0.407    0.407
-200.00   13.005   24.906   28.097   27.704    0.043    0.417    0.420    0.420
-199.00   13.381   25.288   28.610   28.221    0.045    0.431    0.433    0.433
-198.00   13.774   25.678   29.139   28.754    0.047    0.444    0.447    0.447
-197.00   14.186   26.075   29.684   29.304    0.049    0.459    0.461    0.461
-196.00   14.617   26.480   30.246   29.871    0.051    0.474    0.477    0.476
-195.00   15.068   26.893   30.826   30.456    0.053    0.489    0.492    0.492
-194.00   15.540   27.313   31.425   31.060    0.056    0.506    0.509    0.509
-193.00   16.036   27.742   32.043   31.684    0.058    0.523    0.526    0.526
-192.00   16.555   28.178   32.681   32.328    0.061    0.541    0.544    0.544
-191.00   17.100   28.622   33.341   32.994    0.064    0.559    0.563    0.563
-190.00   17.672   29.073   34.023   33.682    0.066    0.579    0.583    0.583
-189.00   18.272   29.532   34.728   34.393    0.069    0.599    0.603    0.603
-188.00   18.902   29.998   35.456   35.129    0.073    0.621    0.625    0.625
-187.00   19.564   30.470   36.211   35.891    0.076    0.643    0.647    0.647
-186.00   20.261   30.949   36.991   36.679    0.080    0.666    0.671    0.671
-185.00   20.993   31.434   37.799   37.495    0.083    0.691    0.696    0.696
-184.00   21.763   31.924   38.636   38.341    0.087    0.717    0.722    0.722
-183.00   22.573   32.418   39.503   39.217    0.091    0.743    0.749    0.749
-182.00   23.427   32.917   40.402   40.125    0.096    0.772    0.778    0.778
-181.00   24.325   33.418   41.333   41.066    0.100    0.801    0.807    0.807
-180.00   25.272   33.920   42.300   42.042    0.105    0.832    0.839    0.839
-179.00   26.270   34.424   43.302   43.055    0.110    0.865    0.872    0.872
-178.00   27.322   34.926   44.343   44.106    0.116    0.899    0.906    0.906
-177.00   28.431   35.425   45.423   45.197    0.121    0.934    0.942    0.942
-176.00   29.601   35.919   46.545   46.330    0.127    0.972    0.980    0.980
-175.00   30.836   36.406   47.710   47.507    0.134    1.011    1.020    1.020
-174.00   32.139   36.882   48.920   48.730    0.140    1.052    1.062    1.062
-173.00   33.514   37.346   50.179   50.001    0.147    1.096    1.105    1.105
-172.00   34.965   37.793   51.487   51.322    0.154    1.141    1.151    1.151
-171.00   36.498   38.220   52.847   52.696    0.161    1.189    1.199    1.199
-170.00   38.115   38.621   54.262   54.124    0.169    1.238    1.250    1.250
-169.00   39.823   38.992   55.734   55.609    0.177    1.291    1.303    1.303
-168.00   41.625   39.327   57.265   57.153    0.185    1.345    1.358    1.358
-167.00   43.527   39.619   58.858   58.760    0.194    1.403    1.416    1.416
-166.00   45.533   39.861   60.515   60.431    0.202    1.463    1.477    1.477
-165.00   47.647   40.044   62.240   62.168    0.211    1.525    1.540    1.540
-164.00   49.876   40.159   64.034   63.975    0.220    1.591    1.606    1.606
-163.00   52.222   40.195   65.900   65.853    0.229    1.659    1.675    1.675
-162.00   54.690   40.141   67.840   67.805    0.238    1.731    1.747    1.747
-161.00   57.283   39.984   69.857   69.833    0.248    1.805    1.822    1.822
-160.00   60.004   39.710   71.954   71.938    0.256    1.882    1.899    1.899
-159.00   62.854   39.302   74.131   74.122    0.265    1.962    1.979    1.979
-158.00   65.835   38.745   76.390   76.387    0.273    2.044    2.062    2.062
-157.00   68.945   38.020   78.733   78.733    0.281    2.129    2.148    2.148
-156.00   72.180   37.108   81.160   81.159    0.288    2.217    2.236    2.236
-155.00   75.537   35.988   83.672   83.667    0.293    2.307    2.325    2.325
-154.00   79.006   34.641   86.267   86.253    0.298    2.399    2.417    2.417
-153.00   82.577   33.047   88.944   88.916    0.301    2.492    2.510    2.510
-152.00   86.235   31.187   91.701   91.653    0.302    2.586    2.603    2.603
-151.00   89.960   29.048   94.534   94.458    0.301    2.680    2.697    2.697
-150.00   93.730   26.624   97.438   97.327    0.298    2.775    2.790    2.790
-149.00   97.515   23.924  100.407  100.250    0.291    2.868    2.882    2.882
-148.00  101.281   20.987  103.433  103.218    0.282    2.959    2.972    2.972
-147.00  104.989   17.914  106.506  106.222    0.270    3.046    3.058    3.058
-146.00  108.593   14.946  109.616  109.247    0.254    3.130    3.140    3.140
-145.00  112.042   12.615  112.749  112.279    0.235    3.208    3.217    3.216
-144.00  115.281   11.885  115.892  115.302    0.213    3.279    3.286    3.285
-143.00  118.251   13.567  119.027  118.297    0.189    3.342    3.347    3.346
-142.00  120.892   17.398  122.137  121.245    0.164    3.395    3.399    3.398
-141.00  123.141   22.638  125.205  124.126    0.142    3.437    3.440    3.438
-140.00  124.941   28.772  128.211  126.917    0.129    3.466    3.468    3.466
-139.00  126.235   35.516  131.136  129.599    0.132    3.481    3.484    3.481
-138.00  126.976   42.693  133.961  132.151    0.154    3.482    3.485    3.482
-137.00  127.126   50.173  136.669  134.553    0.189    3.467    3.472    3.468
-136.00  126.661   57.843  139.243  136.788    0.234    3.435    3.443    3.438
-135.00  125.569   65.596  141.670  138.839    0.283    3.387    3.399    3.392
-134.00  123.856   73.329  143.936  140.696    0.335    3.322    3.339    3.331
-133.00  121.546   80.945  146.033  142.349    0.387    3.242    3.265    3.255
-132.00  118.680   88.350  147.955  143.793    0.438    3.146    3.177    3.164
-131.00  115.315   95.457  149.698  145.026    0.487    3.037    3.076    3.060
-130.00  111.524  102.191  151.263  146.050    0.531    2.915    2.963    2.944
-129.00  107.392  108.488  152.653  146.872    0.572    2.783    2.841    2.818
-128.00  103.017  114.297  153.871  147.501    0.608    2.643    2.712    2.684
-127.00   98.498  119.582  154.924  147.949    0.638    2.496    2.577    2.543
-126.00   93.940  124.321  155.822  148.231    0.663    2.346    2.438    2.398
-125.00   89.446  128.507  156.571  148.363    0.682    2.195    2.298    2.251
-124.00   85.111  132.146  157.183  148.364    0.697    2.045    2.160    2.104
-123.00   81.018  135.257  157.666  148.252    0.706    1.898    2.025    1.959
-122.00   77.238  137.867  158.028  148.047    0.712    1.758    1.897    1.819
-121.00   73.822  140.009  158.279  147.766    0.714    1.626    1.776    1.685
-120.00   70.803  141.722  158.424  147.429    0.713    1.505    1.666    1.560
-119.00   68.198  143.045  158.470  147.050    0.711    1.398    1.568    1.445
-118.00   66.008  144.014  158.421  146.643    0.708    1.306    1.486    1.343
-117.00   64.229  144.664  158.281  146.220    0.705    1.232    1.420    1.257
-116.00   62.852  145.017  158.051  145.788    0.703    1.179    1.373    1.191
-115.00   61.877  145.090  157.733  145.350    0.702    1.149    1.346    1.151
-114.00   61.311  144.888  157.326  144.908    0.702    1.142    1.341    1.143
-113.00   61.176  144.405  156.829  144.458    0.703    1.161    1.357    1.168
-112.00   61.503  143.625  156.239  143.994    0.705    1.204    1.395    1.224
-111.00   62.325  142.521  155.553  143.507    0.706    1.269    1.453    1.303
-110.00   63.672  141.062  154.767  142.985    0.707    1.355    1.529    1.400
-109.00   65.561  139.211  153.876  142.415    0.707    1.458    1.620    1.511
-108.00   67.985  136.927  152.875  141.783    0.704    1.575    1.725    1.633
-107.00   70.913  134.173  151.759  141.074    0.697    1.704    1.841    1.764
-106.00   74.285  130.915  150.523  140.274    0.687    1.841    1.965    1.900
-105.00   78.020  127.128  149.160  139.368    0.672    1.983    2.093    2.039
-104.00   82.015  122.795  147.666  138.346    0.651    2.127    2.224    2.179
-103.00   86.158  117.912  146.036  137.195    0.625    2.270    2.355    2.317
-102.00   90.329  112.490  144.268  135.908    0.594    2.411    2.483    2.451
-101.00   94.407  106.553  142.360  134.477    0.558    2.545    2.605    2.579
-100.00   98.278  100.143  140.311  132.898    0.517    2.670    2.720    2.698
 -99.00  101.834   93.318  138.125  131.171    0.472    2.785    2.825    2.807
 -98.00  104.981   86.151  135.805  129.297    0.424    2.887    2.918    2.904
 -97.00  107.638   78.731  133.358  127.282    0.374    2.975    2.999    2.986
 -96.00  109.742   71.162  130.795  125.134    0.324    3.047    3.065    3.055
 -95.00  111.247   63.564  128.126  122.863    0.276    3.103    3.115    3.107
 -94.00  112.127   56.073  125.366  120.482    0.232    3.142    3.150    3.143
 -93.00  112.373   48.847  122.530  118.008    0.196    3.163    3.169    3.163
 -92.00  111.993   42.078  119.637  115.458    0.174    3.167    3.172    3.167
 -91.00  111.012   36.006  116.705  112.850    0.169    3.155    3.160    3.156
 -90.00  109.464   30.937  113.752  110.204    0.179    3.128    3.133    3.129
 -89.00  107.397   27.237  110.797  107.539    0.199    3.086    3.092    3.089
 -88.00  104.865   25.240  107.860  104.874    0.225    3.030    3.039    3.036
 -87.00  101.927   25.042  104.958  102.227    0.252    2.963    2.974    2.972
 -86.00   98.641   26.374  102.106   99.615    0.277    2.886    2.899    2.897
 -85.00   95.070   28.746   99.321   97.055    0.301    2.800    2.816    2.814
 -84.00   91.270   31.688   96.615   94.558    0.321    2.706    2.725    2.723
 -83.00   87.296   34.859   93.999   92.139    0.338    2.606    2.628    2.626
 -82.00   83.199   38.044   91.484   89.807    0.352    2.501    2.526    2.524
 -81.00   79.021   41.115   89.078   87.570    0.363    2.393    2.420    2.418
 -80.00   74.803   44.004   86.786   85.437    0.371    2.282    2.312    2.310
 -79.00   70.577   46.674   84.614   83.412    0.377    2.170    2.202    2.200
 -78.00   66.371   49.111   82.565   81.498    0.380    2.057    2.092    2.089
 -77.00   62.207   51.316   80.642   79.700    0.381    1.944    1.981    1.978
 -76.00   58.104   53.296   78.845   78.019    0.381    1.832    1.871    1.867
 -75.00   54.074   55.063   77.175   76.454    0.379    1.722    1.763    1.758
 -74.00   50.128   56.633   75.631   75.007    0.377    1.613    1.656    1.651
 -73.00   46.271   58.022   74.213   73.676    0.373    1.507    1.552    1.545
 -72.00   42.508   59.247   72.918   72.461    0.369    1.404    1.451    1.443
 -71.00   38.839   60.324   71.746   71.359    0.365    1.304    1.354    1.343
 -70.00   35.263   61.269   70.692   70.370    0.360    1.208    1.261    1.247
 -69.00   31.779   62.097   69.756   69.490    0.356    1.117    1.172    1.155
 -68.00   28.382   62.820   68.934   68.718    0.351    1.031    1.090    1.068
 -67.00   25.067   63.452   68.224   68.051    0.347    0.952    1.014    0.986
 -66.00   21.828   64.004   67.624   67.487    0.343    0.881    0.945    0.910
 -65.00   18.660   64.485   67.130   67.025    0.340    0.818    0.886    0.842
 -64.00   15.555   64.903   66.741   66.662    0.337    0.767    0.838    0.784
 -63.00   12.507   65.266   66.454   66.396    0.335    0.728    0.802    0.737
 -62.00    9.510   65.580   66.266   66.226    0.334    0.705    0.780    0.707
 -61.00    6.563   65.850   66.177   66.150    0.333    0.696    0.772    0.696
 -60.00    3.686   66.080   66.183   66.167    0.333    0.705    0.779    0.707
 -59.00    1.200   66.273   66.284   66.275    0.334    0.729    0.801    0.738
 -58.00    2.512   66.430   66.478   66.473    0.335    0.767    0.837    0.784
 -57.00    5.298   66.552   66.763   66.762    0.338    0.818    0.885    0.842
 -56.00    8.173   66.640   67.139   67.139    0.341    0.880    0.944    0.910
 -55.00   11.081   66.691   67.605   67.605    0.344    0.951    1.011    0.985
 -54.00   14.018   66.703   68.160   68.159    0.349    1.030    1.087    1.066
 -53.00   16.990   66.673   68.804   68.802    0.354    1.115    1.170    1.153
 -52.00   20.004   66.596   69.536   69.532    0.360    1.206    1.258    1.246
 -51.00   23.067   66.468   70.356   70.351    0.366    1.302    1.353    1.342
 -50.00   26.187   66.280   71.265   71.259    0.373    1.403    1.452    1.444
 -49.00   29.371   66.025   72.263   72.256    0.381    1.508    1.555    1.549
 -48.00   32.627   65.693   73.349   73.342    0.389    1.617    1.663    1.658
 -47.00   35.961   65.274   74.524   74.518    0.397    1.730    1.775    1.771
 -46.00   39.380   64.755   75.789   75.783    0.406    1.847    1.891    1.887
 -45.00   42.888   64.122   77.143   77.139    0.414    1.967    2.010    2.008
 -44.00   46.491   63.361   78.587   78.585    0.422    2.091    2.133    2.131
 -43.00   50.190   62.453   80.121   80.120    0.430    2.218    2.260    2.258
 -42.00   53.986   61.381   81.744   81.744    0.437    2.348    2.389    2.387
 -41.00   57.880   60.124   83.456   83.456    0.444    2.481    2.521    2.519
 -40.00   61.866   58.662   85.257   85.255    0.449    2.616    2.655    2.653
 -39.00   65.941   56.973   87.144   87.137    0.453    2.754    2.791    2.790
 -38.00   70.093   55.033   89.116   89.101    0.454    2.892    2.928    2.927
 -37.00   74.310   52.819   91.169   91.142    0.454    3.032    3.066    3.065
 -36.00   78.574   50.312   93.301   93.255    0.451    3.171    3.203    3.202
 -35.00   82.863   47.490   95.507   95.435    0.445    3.310    3.339    3.338
 -34.00   87.150   44.341   97.781   97.673    0.435    3.446    3.473    3.472
 -33.00   91.401   40.857  100.117   99.961    0.422    3.579    3.604    3.603
 -32.00   95.579   37.045  102.507  102.289    0.404    3.707    3.729    3.728
 -31.00   99.638   32.937  104.941  104.646    0.382    3.830    3.849    3.848
 -30.00  103.530   28.605  107.409  107.017    0.356    3.944    3.960    3.959
 -29.00  107.201   24.210  109.901  109.389    0.326    4.049    4.062    4.060
 -28.00  110.593   20.087  112.402  111.746    0.293    4.142    4.153    4.151
 -27.00  113.646   16.931  114.900  114.071    0.259    4.222    4.230    4.228
 -26.00  116.300   15.886  117.380  116.347    0.228    4.287    4.293    4.290
 -25.00  118.499   17.801  119.829  118.555    0.206    4.334    4.339    4.335
 -24.00  120.189   22.247  122.231  120.678    0.200    4.363    4.367    4.363
 -23.00  121.325   28.259  124.573  122.698    0.218    4.371    4.377    4.371
 -22.00  121.872   35.155  126.841  124.600    0.256    4.359    4.366    4.360
 -21.00  121.808   42.545  129.024  126.369    0.309    4.324    4.335    4.327
 -20.00  121.127   50.187  131.113  127.994    0.371    4.267    4.283    4.273
 -19.00  119.840   57.909  133.098  129.464    0.437    4.188    4.211    4.199
 -18.00  117.974   65.575  134.974  130.774    0.504    4.088    4.119    4.104
 -17.00  115.578   73.068  136.738  131.920    0.570    3.968    4.009    3.990
 -16.00  112.715   80.290  138.388  132.903    0.633    3.830    3.882    3.859
 -15.00  109.465   87.157  139.925  133.726    0.692    3.675    3.739    3.712
 -14.00  105.920   93.601  141.351  134.395    0.745    3.506    3.585    3.551
 -13.00  102.183   99.568  142.671  134.919    0.792    3.327    3.420    3.380
 -12.00   98.359  105.023  143.890  135.311    0.831    3.141    3.249    3.201
 -11.00   94.557  109.943  145.012  135.584    0.863    2.950    3.074    3.016
 -10.00   90.877  114.325  146.044  135.752    0.888    2.758    2.898    2.830
  -9.00   87.410  118.178  146.991  135.833    0.906    2.569    2.724    2.644
  -8.00   84.229  121.521  147.858  135.843    0.917    2.386    2.557    2.462
  -7.00   81.387  124.386  148.647  135.797    0.923    2.213    2.398    2.287
  -6.00   78.916  126.811  149.361  135.712    0.925    2.052    2.251    2.122
  -5.00   76.822  128.837  150.002  135.600    0.923    1.908    2.119    1.970
  -4.00   75.094  130.506  150.569  135.475    0.919    1.781    2.004    1.833
  -3.00   73.707  131.858  151.060  135.344    0.914    1.677    1.910    1.714
  -2.00   72.630  132.924  151.473  135.213    0.909    1.596    1.837    1.619
  -1.00   71.832  133.731  151.802  135.086    0.906    1.542    1.789    1.551
   0.00   71.295  134.293  152.044  134.960    0.904    1.517    1.766    1.517
   1.00   71.012  134.611  152.193  134.831    0.904    1.520    1.769    1.522
   2.00   70.992  134.676  152.242  134.690    0.906    1.553    1.798    1.565
   3.00   71.262  134.469  152.184  134.527    0.909    1.614    1.852    1.641
   4.00   71.856  133.958  152.013  134.329    0.912    1.701    1.930    1.743
   5.00   72.815  133.107  151.721  134.081    0.914    1.812    2.030    1.867
   6.00   74.173  131.874  151.302  133.769    0.915    1.944    2.149    2.009
   7.00   75.952  130.217  150.748  133.377    0.912    2.094    2.284    2.165
   8.00   78.151  128.096  150.054  132.893    0.904    2.258    2.432    2.331
   9.00   80.746  125.478  149.213  132.302    0.892    2.432    2.590    2.505
  10.00   83.684  122.337  148.220  131.595    0.873    2.613    2.755    2.683
  11.00   86.891  118.660  147.072  130.762    0.846    2.797    2.923    2.862
  12.00   90.272  114.449  145.766  129.797    0.813    2.981    3.090    3.040
  13.00   93.722  109.722  144.300  128.697    0.773    3.161    3.254    3.212
  14.00   97.125  104.514  142.676  127.460    0.725    3.333    3.411    3.376
  15.00  100.371   98.881  140.896  126.089    0.671    3.494    3.557    3.529
  16.00  103.350   92.899  138.965  124.588    0.612    3.641    3.692    3.668
  17.00  105.965   86.664  136.892  122.966    0.548    3.771    3.811    3.791
  18.00  108.133   80.296  134.686  121.235    0.482    3.883    3.913    3.897
  19.00  109.786   73.934  132.360  119.406    0.415    3.974    3.996    3.983
  20.00  110.874   67.742  129.931  117.498    0.351    4.043    4.059    4.048
  21.00  111.366   61.902  127.414  115.526    0.292    4.090    4.101    4.092
  22.00  111.251   56.619  124.830  113.510    0.246    4.115    4.122    4.115
  23.00  110.533   52.106  122.199  111.470    0.218    4.116    4.122    4.116
  24.00  109.233   48.564  119.542  109.424    0.214    4.097    4.102    4.097
  25.00  107.386   46.146  116.881  107.393    0.231    4.056    4.063    4.059
  26.00  105.036   44.917  114.237  105.393    0.261    3.997    4.005    4.002
  27.00  102.237   44.823  111.631  103.442    0.297    3.920    3.931    3.928
  28.00   99.045   45.703  109.082  101.553    0.334    3.827    3.842    3.839
  29.00   95.522   47.336  106.607   99.738    0.369    3.721    3.739    3.737
  30.00   91.727   49.486  104.224   98.009    0.401    3.603    3.625    3.623
  31.00   87.717   51.947  101.945   96.372    0.428    3.475    3.501    3.499
  32.00   83.547   54.556   99.782   94.834    0.451    3.339    3.369    3.368
  33.00   79.268   57.192   97.746   93.399    0.469    3.197    3.231    3.229
  34.00   74.924   59.770   95.844   92.069    0.484    3.050    3.088    3.086
  35.00   70.554   62.237   94.081   90.847    0.494    2.900    2.941    2.940
  36.00   66.194   64.558   92.463   89.732    0.500    2.748    2.793    2.791
  37.00   61.870   66.719   90.991   88.724    0.504    2.595    2.643    2.641
  38.00   57.609   68.712   89.666   87.821    0.504    2.442    2.493    2.491
  39.00   53.427   70.540   88.489   87.021    0.503    2.290    2.344    2.341
  40.00   49.343   72.210   87.458   86.323    0.499    2.139    2.197    2.193
  41.00   45.367   73.732   86.571   85.725    0.494    1.992    2.052    2.048
  42.00   41.510   75.119   85.825   85.223    0.488    1.847    1.910    1.905
  43.00   37.780   76.385   85.217   84.816    0.481    1.706    1.772    1.766
  44.00   34.184   77.543   84.744   84.500    0.474    1.569    1.639    1.630
  45.00   30.732   78.607   84.401   84.274    0.466    1.436    1.510    1.499
  46.00   27.432   79.590   84.184   84.135    0.458    1.309    1.387    1.372
  47.00   24.298   80.503   84.090   84.082    0.449    1.188    1.271    1.251
  48.00   21.351   81.359   84.114   84.112    0.442    1.075    1.162    1.136
  49.00   18.625   82.167   84.252   84.224    0.434    0.970    1.063    1.028
  50.00   16.173   82.938   84.500   84.416    0.427    0.876    0.975    0.928
  51.00   14.078   83.680   84.856   84.687    0.420    0.796    0.900    0.838
  52.00   12.459   84.400   85.315   85.035    0.414    0.732    0.841    0.760
  53.00   11.463   85.105   85.874   85.460    0.409    0.689    0.801    0.701
  54.00   11.208   85.801   86.530   85.960    0.404    0.669    0.782    0.670
  55.00   11.702   86.494   87.282   86.536    0.401    0.674    0.784    0.678
  56.00   12.832   87.187   88.126   87.187    0.398    0.702    0.807    0.719
  57.00   14.431   87.884   89.061   87.912    0.395    0.751    0.849    0.781
  58.00   16.352   88.588   90.085   88.712    0.394    0.817    0.907    0.856
  59.00   18.490   89.302   91.196   89.586    0.394    0.895    0.978    0.941
  60.00   20.779   90.027   92.394   90.535    0.394    0.984    1.060    1.033
  61.00   23.178   90.765   93.678   91.560    0.396    1.080    1.150    1.131
  62.00   25.663   91.516   95.047   92.660    0.398    1.182    1.247    1.233
  63.00   28.221   92.281   96.500   93.836    0.401    1.290    1.351    1.340
  64.00   30.846   93.060   98.039   95.090    0.405    1.401    1.459    1.451
  65.00   33.535   93.851   99.662   96.423    0.411    1.517    1.572    1.566
  66.00   36.289   94.653  101.371   97.835    0.417    1.636    1.688    1.684
  67.00   39.110   95.465  103.166   99.328    0.424    1.759    1.809    1.806
  68.00   42.003   96.284  105.047  100.903    0.431    1.885    1.934    1.932
  69.00   44.973   97.107  107.016  102.562    0.440    2.014    2.062    2.061
  70.00   48.025   97.932  109.074  104.307    0.450    2.147    2.194    2.193
  71.00   51.165   98.754  111.222  106.139    0.460    2.284    2.330    2.329
  72.00   54.401   99.569  113.462  108.060    0.471    2.424    2.470    2.469
  73.00   57.738  100.372  115.794  110.073    0.483    2.569    2.614    2.614
  74.00   61.185  101.158  118.222  112.178    0.496    2.717    2.762    2.762
  75.00   64.748  101.919  120.746  114.379    0.510    2.870    2.915    2.914
  76.00   68.434  102.648  123.369  116.678    0.524    3.027    3.072    3.072
  77.00   72.251  103.339  126.092  119.076    0.539    3.188    3.233    3.233
  78.00   76.206  103.982  128.917  121.577    0.555    3.354    3.400    3.400
  79.00   80.305  104.569  131.847  124.182    0.571    3.525    3.571    3.571
  80.00   84.556  105.089  134.883  126.894    0.587    3.702    3.748    3.748
  81.00   88.964  105.531  138.027  129.714    0.604    3.883    3.930    3.930
  82.00   93.535  105.883  141.280  132.646    0.621    4.069    4.117    4.116
  83.00   98.274  106.134  144.645  135.691    0.639    4.261    4.309    4.309
  84.00  103.184  106.271  148.123  138.850    0.656    4.458    4.506    4.506
  85.00  108.269  106.279  151.715  142.126    0.673    4.661    4.709    4.709
  86.00  113.529  106.145  155.421  145.519    0.690    4.868    4.917    4.917
  87.00  118.967  105.855  159.243  149.032    0.706    5.081    5.130    5.129
  88.00  124.578  105.396  163.181  152.664    0.721    5.299    5.348    5.347
  89.00  130.361  104.753  167.234  156.416    0.735    5.521    5.570    5.569
  90.00  136.308  103.915  171.401  160.287    0.748    5.748    5.796    5.796
  91.00  142.410  102.873  175.680  164.276    0.760    5.978    6.026    6.026
  92.00  148.656  101.620  180.070  168.382    0.769    6.212    6.259    6.259
  93.00  155.030  100.153  184.567  172.602    0.776    6.449    6.495    6.494
  94.00  161.512   98.477  189.166  176.932    0.780    6.687    6.732    6.731
  95.00  168.079   96.605  193.863  181.369    0.781    6.926    6.970    6.969
  96.00  174.702   94.560  198.651  185.907    0.778    7.166    7.208    7.207
  97.00  181.349   92.381  203.523  190.539    0.772    7.404    7.444    7.443
  98.00  187.981   90.126  208.470  195.257    0.761    7.640    7.677    7.676
  99.00  194.555   87.877  213.481  200.051    0.745    7.871    7.906    7.905
 100.00  201.022   85.743  218.545  204.912    0.724    8.097    8.130    8.128
 101.00  207.329   83.866  223.649  209.827    0.698    8.316    8.345    8.344
 102.00  213.415   82.422  228.778  214.783    0.667    8.525    8.551    8.550
 103.00  219.219   81.613  233.918  219.764    0.630    8.724    8.746    8.745
 104.00  224.673   81.656  239.052  224.756    0.587    8.908    8.928    8.926
 105.00  229.707   82.760  244.161  229.740    0.540    9.078    9.094    9.092
 106.00  234.248   85.097  249.226  234.699    0.488    9.230    9.243    9.240
 107.00  238.225   88.777  254.230  239.614    0.435    9.362    9.372    9.370
 108.00  241.566   93.835  259.151  244.466    0.382    9.472    9.480    9.477
 109.00  244.202  100.228  263.970  249.234    0.335    9.559    9.565    9.562
 110.00  246.069  107.857  268.669  253.901    0.302    9.620    9.625    9.621
 111.00  247.109  116.582  273.229  258.447    0.293    9.654    9.659    9.655
 112.00  247.270  126.241  277.632  262.855    0.314    9.660    9.665    9.660
 113.00  246.514  136.664  281.862  267.107    0.363    9.636    9.643    9.637
 114.00  244.809  147.683  285.905  271.189    0.433    9.582    9.592    9.585
 115.00  242.139  159.135  289.750  275.088    0.515    9.498    9.512    9.504
 116.00  238.498  170.863  293.386  278.793    0.604    9.384    9.404    9.394
 117.00  233.897  182.720  296.807  282.296    0.698    9.240    9.267    9.255
 118.00  228.358  194.570  300.008  285.590    0.792    9.068    9.103    9.088
 119.00  221.917  206.286  302.987  288.671    0.886    8.869    8.913    8.895
 120.00  214.626  217.751  305.745  291.538    0.978    8.645    8.701    8.678
 121.00  206.547  228.861  308.284  294.192    1.066    8.399    8.467    8.440
 122.00  197.757  239.521  310.609  296.637    1.150    8.134    8.215    8.181
 123.00  188.346  249.649  312.728  298.876    1.229    7.853    7.948    7.907
 124.00  178.419  259.172  314.648  300.916    1.303    7.559    7.671    7.620
 125.00  168.095  268.029  316.379  302.765    1.370    7.259    7.387    7.324
 126.00  157.512  276.170  317.930  304.430    1.431    6.956    7.102    7.025
 127.00  146.832  283.551  319.313  305.921    1.486    6.657    6.821    6.726
 128.00  136.248  290.139  320.537  307.246    1.534    6.368    6.550    6.434
 129.00  125.991  295.908  321.613  308.414    1.576    6.095    6.295    6.155
 130.00  116.346  300.836  322.550  309.432    1.611    5.846    6.064    5.897
 131.00  107.656  304.908  323.355  310.308    1.639    5.629    5.862    5.667
 132.00  100.328  308.113  324.036  311.047    1.661    5.451    5.698    5.476
 133.00   94.809  310.444  324.599  311.654    1.677    5.319    5.577    5.331
 134.00   91.519  311.896  325.046  312.132    1.687    5.240    5.505    5.243
 135.00   90.760  312.465  325.379  312.482    1.690    5.216    5.483    5.216
 136.00   92.611  312.152  325.600  312.704    1.687    5.250    5.514    5.254
 137.00   96.904  310.957  325.706  312.797    1.678    5.339    5.596    5.353
 138.00  103.283  308.883  325.693  312.756    1.663    5.479    5.726    5.507
 139.00  111.311  305.936  325.556  312.577    1.642    5.666    5.899    5.707
 140.00  120.556  302.124  325.288  312.253    1.614    5.890    6.108    5.944
 141.00  130.638  297.457  324.880  311.776    1.580    6.146    6.346    6.209
 142.00  141.240  291.953  324.323  311.135    1.539    6.425    6.607    6.494
 143.00  152.100  285.632  323.605  310.323    1.491    6.720    6.884    6.791
 144.00  163.004  278.521  322.714  309.327    1.438    7.024    7.170    7.094
 145.00  173.775  270.654  321.639  308.137    1.377    7.331    7.460    7.398
 146.00  184.260  262.074  320.367  306.742    1.311    7.636    7.748    7.698
 147.00  194.329  252.834  318.886  305.131    1.238    7.933    8.029    7.989
 148.00  203.867  242.993  317.187  303.296    1.160    8.219    8.300    8.267
 149.00  212.774  232.625  315.258  301.228    1.077    8.488    8.556    8.529
 150.00  220.964  221.813  313.091  298.920    0.990    8.738    8.794    8.772
 151.00  228.363  210.649  310.681  296.368    0.900    8.966    9.011    8.993
 152.00  234.908  199.239  308.023  293.569    0.807    9.169    9.205    9.190
 153.00  240.550  187.698  305.115  290.523    0.714    9.345    9.373    9.360
 154.00  245.256  176.150  301.959  287.233    0.623    9.494    9.514    9.504
 155.00  249.002  164.728  298.559  283.705    0.535    9.613    9.627    9.619
 156.00  251.780  153.574  294.921  279.947    0.454    9.702    9.712    9.705
 157.00  253.596  142.835  291.055  275.968    0.385    9.761    9.768    9.762
 158.00  254.467  132.663  286.972  271.783    0.336    9.790    9.796    9.790
 159.00  254.424  123.210  282.688  267.407    0.311    9.790    9.795    9.790
 160.00  253.508  114.625  278.218  262.856    0.314    9.762    9.767    9.763
 161.00  251.770  107.043  273.581  258.150    0.341    9.707    9.713    9.709
 162.00  249.269  100.579  268.796  253.308    0.383    9.627    9.635    9.631
 163.00  246.068   95.311  263.882  248.351    0.431    9.524    9.533    9.530
 164.00  242.239   91.269  258.862  243.299    0.481    9.399    9.411    9.408
 165.00  237.851   88.423  253.755  238.173    0.529    9.255    9.270    9.267
 166.00  232.979   86.685  248.583  232.994    0.574    9.093    9.111    9.109
 167.00  227.694   85.917  243.364  227.782    0.615    8.917    8.938    8.935
 168.00  222.067   85.948  238.119  222.554    0.650    8.727    8.752    8.749
 169.00  216.165   86.597  232.866  217.330    0.680    8.527    8.554    8.552
 170.00  210.053   87.686  227.621  212.125    0.705    8.318    8.348    8.346
 171.00  203.789   89.060  222.400  206.954    0.724    8.102    8.134    8.132
 172.00  197.428   90.584  217.217  201.832    0.738    7.881    7.915    7.913
 173.00  191.020   92.152  212.086  196.769    0.748    7.656    7.692    7.690
 174.00  184.606   93.683  207.017  191.777    0.753    7.429    7.467    7.465
 175.00  178.228   95.116  202.020  186.866    0.754    7.201    7.240    7.238
 176.00  171.917   96.408  197.104  182.042    0.752    6.973    7.014    7.012
 177.00  165.703   97.532  192.276  177.313    0.746    6.748    6.789    6.787
 178.00  159.610   98.472  187.542  172.684    0.738    6.524    6.566    6.564
 179.00  153.657   99.218  182.907  168.159    0.727    6.304    6.346    6.343
 180.00  147.862   99.771  178.374  163.741    0.714    6.087    6.129    6.127
 181.00  142.236  100.133  173.947  159.434    0.700    5.875    5.917    5.915
 182.00  136.789  100.312  169.628  155.238    0.684    5.668    5.709    5.707
 183.00  131.528  100.316  165.418  151.154    0.667    5.466    5.507    5.505
 184.00  126.458  100.158  161.317  147.183    0.649    5.270    5.309    5.307
 185.00  121.580   99.848  157.326  143.324    0.631    5.079    5.118    5.116
 186.00  116.896   99.400  153.444  139.576    0.611    4.894    4.932    4.930
 187.00  112.405   98.826  149.671  135.939    0.592    4.715    4.752    4.750
 188.00  108.104   98.137  146.005  132.410    0.573    4.542    4.578    4.576
 189.00  103.990   97.347  142.444  128.988    0.553    4.376    4.410    4.408
 190.00  100.059   96.465  138.987  125.670    0.534    4.215    4.248    4.247
 191.00   96.307   95.503  135.632  122.455    0.515    4.060    4.092    4.090
 192.00   92.729   94.471  132.376  119.340    0.496    3.911    3.942    3.940
 193.00   89.318   93.379  129.218  116.323    0.477    3.768    3.798    3.796
 194.00   86.068   92.234  126.154  113.400    0.459    3.630    3.659    3.657
 195.00   82.975   91.045  123.183  110.570    0.441    3.498    3.525    3.524
 196.00   80.031   89.820  120.301  107.829    0.424    3.371    3.397    3.396
 197.00   77.230   88.564  117.507  105.175    0.407    3.249    3.274    3.273
 198.00   74.565   87.284  114.798  102.605    0.391    3.132    3.157    3.155
 199.00   72.032   85.987  112.171  100.117    0.375    3.020    3.044    3.042
 200.00   69.623   84.675  109.623   97.707    0.360    2.913    2.935    2.934
 201.00   67.333   83.355  107.153   95.374    0.346    2.810    2.831    2.830
 202.00   65.156   82.029  104.757   93.114    0.331    2.712    2.732    2.730
 203.00   63.085   80.702  102.434   90.926    0.318    2.617    2.637    2.635
 204.00   61.117   79.377  100.180   88.806    0.305    2.527    2.545    2.544
 205.00   59.245   78.057   97.994   86.753    0.292    2.441    2.458    2.457
 206.00   57.463   76.743   95.873   84.763    0.280    2.358    2.374    2.373
 207.00   55.769   75.439   93.815   82.836    0.269    2.278    2.294    2.293
 208.00   54.156   74.146   91.818   80.968    0.258    2.202    2.217    2.216
 209.00   52.620   72.866   89.880   79.158    0.247    2.130    2.144    2.143
 210.00   51.158   71.601   87.999   77.403    0.237    2.060    2.074    2.072
 211.00   49.764   70.351   86.172   75.701    0.227    1.993    2.006    2.005
 212.00   48.435   69.117   84.399   74.052    0.218    1.929    1.942    1.940
 213.00   47.168   67.901   82.677   72.452    0.209    1.868    1.880    1.878
 214.00   45.959   66.703   81.004   70.900    0.201    1.809    1.820    1.819
 215.00   44.805   65.525   79.379   69.394    0.193    1.753    1.763    1.762
 216.00   43.703   64.365   77.800   67.932    0.185    1.699    1.709    1.708
 217.00   42.649   63.225   76.265   66.514    0.178    1.647    1.657    1.656
 218.00   41.641   62.106   74.773   65.138    0.170    1.598    1.607    1.606
 219.00   40.676   61.006   73.323   63.801    0.164    1.550    1.559    1.558
 220.00   39.753   59.927   71.913   62.503    0.157    1.504    1.513    1.512
 221.00   38.868   58.868   70.542   61.242    0.151    1.461    1.468    1.467
 222.00   38.019   57.830   69.208   60.017    0.145    1.419    1.426    1.425
 223.00   37.205   56.812   67.910   58.827    0.140    1.378    1.385    1.384
 224.00   36.424   55.814   66.648   57.671    0.134    1.339    1.346    1.345
 225.00   35.673   54.836   65.419   56.546    0.129    1.302    1.308    1.308
 226.00   34.951   53.879   64.222   55.453    0.124    1.266    1.272    1.272
 227.00   34.256   52.941   63.057   54.390    0.120    1.232    1.238    1.237
 228.00   33.588   52.022   61.923   53.356    0.115    1.199    1.204    1.204
 229.00   32.944   51.123   60.818   52.351    0.111    1.167    1.172    1.172
 230.00   32.323   50.243   59.742   51.372    0.107    1.136    1.141    1.141
 231.00   31.724   49.381   58.693   50.420    0.103    1.107    1.112    1.111
 232.00   31.145   48.538   57.671   49.493    0.099    1.079    1.083    1.082
 233.00   30.587   47.713   56.675   48.590    0.095    1.051    1.056    1.055
 234.00   30.047   46.905   55.704   47.712    0.092    1.025    1.029    1.029
 235.00   29.525   46.115   54.757   46.856    0.089    1.000    1.004    1.003
